ECG,-9.536826030258872,-11.619293453535654,-4.985431157600081,1.0018634324861786,-1.1489327211262204,0.19479000124509582,3.641594254456713,-8.893587663313927,-23.555796860967288,-20.451112536881283,-21.86065688173068,-30.68876799872265,-14.472734872159693,9.569505694781359,6.603898485256931,-1.7962586944988121,-0.9809266075257099,-12.457745766888383,-35.08068907577552,-52.77959214033998,-59.89575391807051,-59.56493316294893,-61.148451452029576,-56.30155514598267,-54.91000969972028,-86.24315551988522,-68.45371665664459,129.5482412395115,488.98147117580834,820.6882373792677,748.6486745851207,28.023741725037297,-801.6759887871152,-937.9604991804797,-536.3345883596834,-238.95119377002877,-72.590086185003,107.06843485610221,141.43903428428843,73.43494655677785,85.80870042917128,100.95184610022268,59.609617702958076,51.70957242379297,57.17874364557762,25.406552617957793,3.0075615517637644,2.3527981347827405,-6.205865878137641,-13.59318718289977,-12.897059797833325,-17.47358012023744,-22.715858458684124,-16.59870484161097,-4.232949662642348,6.087919203159949,19.39909422493996,38.17124685070148,52.79023590111181,64.0566955995163,82.43273287501002,105.37508896816195,125.47212651202742,133.85503877540484,111.27029022184453,57.992550065450324,3.025160103971891,-40.830688729977076,-77.54373300989421,-98.88812953055483,-104.24940978549498,-103.27462672714746,-89.42811049517026,-62.146495313601974,-38.44828841991724,-21.623253793361002,-12.866242102578134,-20.436217277748845,-25.10202737165735,-8.38542070002999,7.32222467985558,11.189752314515234,17.155596091851038,10.747318427814044,-15.9991127086961,-26.605594569573498,-11.412220668476213,-3.299161176695737,-6.680324968148405,-6.898490643261116,-9.748996214593411,-12.314203886528666,-3.249187353267347,4.4097627015178915,1.357269675522435,-1.0898030586404204,-5.798466153344517,-19.136713806297745,-25.722211778090454,-19.455930297408642,-13.77524765440575,-12.877961703070365,-13.885042803837628,-16.088800879728915,-14.57298066289894,-8.687882820305893,-4.764022224922641,-5.338041539005829,-9.276582387879955,-10.407781733172524,-3.509151088817493,0.611709804267571,-5.058611588690676,-7.378967999702436,-5.066460242478968,-9.854695391593964,-13.287677691257679,-6.92191370968405,-3.7466590770364796,-9.868205447139449,-20.40420469355365,-27.44739998525964,-11.467942543895614,24.05243358173042,39.625716742922094,26.609426136724938,13.86962519899577,2.5395444111957266,-23.95946614628796,-53.7684392482839,-70.49659202955957,-81.39341059822496,-84.68019701886553,-71.82717281188414,-78.68901487525255,-113.4417447777664,-58.33135276361507,202.9996718910994,618.25499007652,909.3820915187921,647.6178500281843,-194.15505248038514,-876.602331002873,-832.1606081968429,-460.52536429169015,-238.32479231258617,-55.14676120624344,121.56670568784247,123.26229115232992,69.57999015760556,101.42687775441564,111.78676982059284,72.92355456948374,54.819917511660805,29.954319333420067,-5.508699818808217,-6.436905362111525,-0.23744753873385527,-11.59176771470769,-13.63488409359223,-13.323047958078899,-26.515498370029434,-26.5284695383613,-3.819142461398336,14.466415510956494,17.51883296561748,16.49896858995958,20.664884276497382,34.67057607932185,58.265348742143544,88.55401155916591,119.26462620750307,134.9608585935801,129.58447197406736,114.49630026130782,85.14664135374355,23.142021148759085,-55.151665935815345,-104.17874466854556,-110.75547655286155,-106.98714472857719,-111.24153920099121,-101.61262844691802,-72.76805148846398,-54.5950217071622,-47.804649524932984,-27.17236434775591,-4.933875419025611,-0.1909946655499013,4.468306077846744,14.564226432859872,12.641466178528203,3.879647269148329,2.032779617791519,4.9298228574541625,9.570327233633254,8.389598554228165,-7.46994944332004,-24.17545500249766,-25.27634607910673,-18.444507140788318,-16.0245468641159,-19.676168842292164,-24.27488672994624,-21.908796493493913,-15.969941997876678,-16.41653011786162,-14.345538708876777,-1.2619881151034527,1.8224331820920732,-15.091124810330587,-23.38549045181337,-12.825860282683372,-9.780673416471878,-15.402998845860182,-7.425641327645744,4.873601893896275,4.273921380171608,-0.18521485547542582,-6.377261045012634,-16.335537194055966,-11.984606813101454,1.729060512672783,-1.3098177174113133,-10.648238582290805,-18.04125110151264,-38.00425189104884,-35.09945990408872,13.33702544956152,34.822542384171356,6.257264567597034,0.5100790045356254,12.391255282596914,-14.592149018257665,-47.46309421634528,-52.80070580047487,-64.84698041639597,-81.2482223434718,-69.62061463059743,-57.242579441872365,-78.77427370368005,-70.69804474183545,110.23183331466083,509.7140560121585,860.5427575959909,702.9802694308507,-21.42617455208341,-711.3866580334422,-837.4078177093603,-584.7566439203831,-344.42133024348783,-139.36506507321639,63.07828366919405,137.8706963190613,105.12331663324869,102.31903550827481,117.05330615291456,84.88397299060938,42.07788146673184,31.87072981500066,35.9211370700895,22.394584562588733,-9.853696895766511,-28.86866246861279,-21.04980480312266,-17.460332471370872,-31.443451331729833,-36.149454332468366,-23.833277630088645,-9.731196494300596,7.111669547559323,29.548876541089385,49.64085597911922,67.33982159714263,85.9194930762553,105.55409336136941,128.09297131748536,147.51505171606107,152.49009366525087,132.80184613328476,77.29997775620112,0.390611663103253,-59.3884420107469,-93.37954160982002,-114.7224753520925,-119.00221264108092,-110.93761372617149,-103.43837842623606,-82.04258773673598,-47.1021870847985,-33.69423458716686,-41.47315778453473,-37.46528063370104,-21.64286153061195,-7.244016902705411,8.095338774369726,16.82534317769185,17.057972423442852,22.912128828561933,20.329652187971774,-3.773343759865611,-14.043621851349679,-0.2816281472418467,-0.6738518709770176,-9.89173776375219,-4.169811414835436,-11.284936905103503,-33.26779507716714,-25.964611364887272,-1.1367455923327618,0.5613539877574816,-10.550257003452689,-19.406896816768143,-28.93566139441419,-26.865870226595394,-12.729683361865778,-3.641655445717184,-4.1750913752345795,-16.134445849859787,-25.637102400092708,-8.935391985639509,6.168536252140665,-8.699146244448695,-12.536122731049716,6.355327817463166,4.166780889160123,-9.45864655375285,-14.40189869653273,-37.119501946027285,-50.73112227649517,-9.971423071474241,29.585405915239285,16.66883227150315,-5.872002040496643,-14.675244708920411,-32.39318236577732,-48.602516388716666,-49.04568706696152,-54.44707017914128,-65.06436729337511,-55.546231285568794,-47.41394413276722,-74.41834572520031,-63.70498907502305,117.16403476928264,481.57721641127057,810.9681674194521,703.8726843325799,15.271684282665461,-716.3913562979185,-858.3835603873464,-555.3820544457158,-293.20370130694687,-113.87312966802173,69.7168962370629,135.77834591643034,94.05725165496922,87.28069686180615,101.53573292194025,80.93672831339285,57.48970513964714,44.68456443409296,27.06257733693908,6.856685752397287,-9.523033034832501,-13.614842314026088,-10.862984986556597,-17.306113618552303,-21.14639400868867,-13.544266758027007,-11.93783647730551,-7.9294632335756,16.655063834912003,42.454462766672506,58.74504192448438,78.11416832155025,90.49699061794041,92.68349705145357,109.78625946600664,138.0859091461082,146.54234102803034,120.25295988047311,57.360255624695874,-20.381265101014506,-73.32779566116963,-99.95858258410259,-121.50349921959001,-129.93055099765374,-116.88201699911423,-96.28142050164873,-74.96490964127071,-50.08328474120386,-24.77752924453788,-13.625492381470714,-26.587961923856955,-37.018240336962066,-18.110483295504185,1.9552043814595095,-0.25922104153819703,1.3990191181638991,12.138602954799389,8.8828852478949,1.2416578164363692,5.05092014409599,6.852320413971928,-0.7498147923147513,-9.03220211510897,-15.017322779164274,-17.484982016498186,-13.091001174507767,-6.003862019023533,-5.169006262955758,-10.28346280281415,-11.825949644838676,-9.352607711321838,-9.071359653097717,-6.267884577331891,-1.836176429404194,-9.230995861567422,-21.35649544750234,-20.2921300163721,-13.039640480083056,-9.976790541925165,-6.531477990496217,-4.507448486694621,-7.112332915685826,-8.995355920817413,-10.075034602181432,-10.880366727980736,-8.14856052616173,-5.844536462914743,-8.493812575217774,-18.154858345880896,-31.99354766102103,-27.22050276331714,4.706691776736085,27.73339332300209,23.053359262299054,14.129090293645746,5.660823075199181,-14.81352447300126,-35.2431409478365,-39.2365555376402,-34.30656630996534,-36.59508579157015,-42.37144593182806,-48.77729201682071,-77.34401433217116,-89.36224950035337,28.324453854971736,312.06770587247064,660.5855629687211,791.8981156643329,338.222082622502,-518.9489571111553,-955.5491322090751,-682.9330078887076,-296.54988521743167,-118.33677395634966,36.06896374325178,128.00778749607912,76.44149446195695,59.336249491341526,100.51675822989135,77.3291221162602,42.03266809474808,45.673035878134684,31.40797304395278,8.810124211669267,7.2143758338268675,0.235116995876135,-13.261480122602384,-17.871068267116147,-20.945416998012675,-20.724171049393675,-11.565368377294117,-1.1428624894515131,5.491130796878728,11.250164985068036,24.895119339193762,49.180891357228006,69.67509592141306,80.29647247555349,94.35994430501734,113.09890613806895,121.52468118287152,111.66396286014546,82.55106825652976,34.86383633673955,-22.89439686250179,-74.23996559030189,-103.97279178740472,-109.60515261019819,-99.7723399153946,-82.48434208101247,-67.16996645674975,-61.42135766104273,-54.78054594031913,-36.35726369068339,-17.982158087885082,-8.254095251195771,0.22512581110127172,5.876898926739603,5.933132075122991,9.290259578400084,13.245511462454903,9.736010145252052,6.950793168765951,5.616267173520871,-3.8535747923385077,-9.671783729404709,-0.1397921182351478,8.467430137858988,6.468950625349761,1.5713635632836827,-11.26543329034822,-31.030811805804028,-32.83560973775158,-15.080979188920992,-4.5563404661647375,-2.868804984508948,-1.3008748614501577,-12.915925322456957,-27.875339155463365,-18.01377920263283,-4.78170026236398,-18.681779460842957,-32.80215479215808,-25.215056706072364,-18.744005285505416,-19.71615931555192,-13.708896703584326,-6.515434251510136,-5.928283649325024,-6.499775330131179,-7.261676128773164,-8.171328616319162,-5.288819413433561,-0.9193832778986355,0.046831183731869785,-1.7777425769779782,-2.88283791851266,-1.8945302959535617,-0.7417788251872661,-3.6005670577057067,-16.576926665409694,-33.43458163017717,-27.895754614090855,4.289517306252702,26.33000914231667,20.02867538301595,6.788252503245895,-3.325933821941268,-21.49907448395594,-44.4088425332647,-52.372679604620835,-49.1182135885532,-56.07659727657446,-56.47166510265434,-45.81129067840892,-75.12110304647226,-95.11402851637179,42.96149172960182,358.5242174943396,719.6039812182323,827.6287458299162,310.75564569614994,-580.8211483491954,-970.4209191898206,-654.4013023769071,-283.814674383035,-111.11425420785366,62.50814333284419,151.66174377527958,90.8178178121869,74.00160994302905,109.37500762634109,85.61317848554646,54.79176020322313,47.149220870804115,20.120159598669396,-0.5612749490389097,0.6548714523289263,-6.082920615533147,-13.935395939718752,-14.464460712830386,-21.84283498760216,-25.656119832424828,-15.495290474706968,-5.167585831939917,6.184060175374473,24.268776238377423,32.204769678716076,32.882382202523495,54.105580650474515,89.35847599117358,115.59286030950913,135.44872026581453,140.52128564224097,113.70202967137467,71.81292626426773,29.73253844084079,-17.65600020866316,-59.405006142569285,-91.38880938410792,-122.19484391373665,-129.6649471859444,-100.50598857449368,-68.7382580207056,-54.751572096947434,-47.94880855039475,-45.12761840258628,-41.32838131316217,-28.807887434276445,-16.39780792029687,-9.559224568372237,-3.9226040503086743,-3.419757916518364,-6.795042293265006,-3.6211200278557385,2.4666668459983008,2.259880548109308,-1.1338691424322107,-4.747082325516125,-8.73511049698691,-7.079447355001076,-0.8187793238177576,-1.206864397937121,-7.10015468660978,-9.886274355089363,-12.770239550688823,-15.356935478183235,-9.63521980276953,-3.2054398186142166,-4.257693359941001,-3.590353083684203,-2.580641774319105,-9.79463820689934,-12.901553895071544,-6.5761331944953,-5.315607356851434,-6.671426858027456,-3.914526340200336,-8.442654091311422,-15.445189623200346,-9.466694975532636,-2.3626951966433793,-5.25332410390412,-7.460285825605965,-7.412815728213452,-9.127051163811291,-6.501425482787422,-0.07058901799596917,5.430840541184479,10.280194591401617,10.642303006217674,5.788261779054238,-1.320589839826848,-12.98659103073674,-19.822529206938583,-12.182542932808351,-7.216508676225901,-10.555725554380883,-3.3356099314179897,5.200769951617933,-0.2598979746438168,2.3743095153181812,13.654015839970162,-1.2290393446402952,-29.53670986971781,-27.68571259202555,-7.491552828198291,-7.756025073058659,-24.626295547889942,-27.71807321290079,-4.995751251019277,23.218313368435172,28.477302522495506,18.032031738260542,17.683675787456764,14.092599520575371,-21.012359444435944,-66.88577818978118,-79.43853375337716,-65.24110311997578,-64.31546351670491,-67.85612533980138,-58.02370840064045,-83.97431105067662,-125.31518008382909,-13.283507996842275,334.62050897155484,754.010230006365,887.3632244994615,406.30490326863,-456.1370654313074,-921.4597134351667,-716.7573712382977,-365.7125188413851,-175.37299956747114,-3.6004168951589435,117.71875082472887,102.8829070934521,87.15133800824356,113.91791656986751,97.3986732857964,60.14985701506599,44.28092999563212,29.584967113339964,14.32580283706437,1.773999311360603,-10.508131917668283,-12.698225635269491,-14.108215049320526,-22.681655847918734,-22.73194137916469,-15.726055435912926,-10.350763456251922,3.873525748846127,24.63316321741494,37.91352989842902,49.483412422664415,64.45331055510675,73.87695786758268,83.0109760870189,100.02574984463614,110.60433901261129,110.4043232189469,109.91112958714895,85.78594454341324,12.698934572944069,-70.5378412939463,-112.85677817069922,-120.29037824404058,-119.37981919291809,-114.95548819734856,-101.29071577980835,-74.21338065448826,-42.210219041193476,-26.862088681348382,-31.31149874826281,-29.22762351742431,-3.8595751151235547,20.017676393733687,8.743441533957977,-18.67330014054023,-15.943995612331896,4.809789496146802,4.148579482729332,-1.0337066024335257,7.917601671615923,1.3241411654894222,-19.95899539300349,-23.597814196475028,-19.377769748159345,-18.7863606350858,-7.820995978551917,-2.5405006290782595,-14.42169024910643,-15.168641943917677,-7.743821427033534,-13.510108416235585,-11.375024209157868,1.1896083318041164,-6.806235541546528,-20.184535562804346,-11.941855806910873,-1.7143734915988063,0.4032078583571739,4.552381765196097,-2.2194975305244995,-19.18133227961856,-18.7095902151192,-6.236216017518,-6.479483213227063,-10.427245182318408,-5.451339600293242,-3.695874439831046,-6.4245580232602375,-3.8060289182381943,-3.556431149848539,-7.605819081834204,-4.523533808758241,-2.0855433801559418,-7.821336175097404,-13.373158304090014,-22.617569197679767,-21.978767113579238,14.337708649160916,41.29518847483464,13.751527756805716,-11.435377621976235,-2.2150888280660688,-12.22891164511528,-43.128326423551925,-53.08700249754146,-54.09196589501961,-62.536492670208986,-60.77281254740411,-46.462613716458335,-49.91652454449529,-86.04801969334207,-77.42346115131708,109.7740741711865,491.60672388383784,839.0270459529726,742.9413154550391,52.295763556494876,-701.3136623587685,-866.8569020375427,-572.8184374144611,-318.1079703821355,-133.52878823305002,83.17957939961985,160.26433539109922,86.39390381072386,68.3794252358964,100.63788013811723,79.97825171854386,59.53818476082239,62.723583513940454,26.983225794478,-18.023318614699562,-16.935546719754313,-7.185401501352345,-18.328152134730253,-28.177528612865306,-34.83170595223771,-39.27823849140829,-25.16593944395865,-4.384499641864478,5.172436569731133,18.136901313516198,42.05837501267549,62.6848404974916,78.14009144495333,97.62539035971582,121.80093328971094,140.51698942418037,139.02322281919726,112.09622270253412,65.2222137923515,2.560947754645797,-62.208823116693374,-102.52279181110508,-114.20425159140504,-118.88256890653103,-119.23544529188887,-100.46136892784872,-71.5224665870027,-53.284590478538185,-43.712578166367315,-30.160888914192725,-13.047143155094961,-3.5603677587796554,-8.210131096762368,-15.380792940328476,-10.535724098302186,-1.8809760993227123,-1.4271384699579528,-1.26203407993183,3.767692478385932,5.643579051220012,5.109695943359533,8.393091584410286,10.901000822944415,5.295090675328824,-7.104703183878822,-16.413372790489866,-14.416566583815282,-8.734376322896342,-11.385548188413313,-16.9920487695011,-16.115276295327163,-11.906287476787663,-7.370371325296787,-3.088255098997763,-4.8207838029790615,-10.917493463248178,-11.73898140066603,-8.252494121081671,-5.779959171197717,-1.0126400299988543,3.6275201795802765,-1.3158220674372956,-8.439119191684387,-3.7199245668965464,4.3516494052456896,5.303430700975941,7.529337620959187,7.054324186473185,-9.024997550583361,-22.242247671353656,-13.280592630340804,-0.09572644058473934,3.316205632388593,3.864923990682666,-4.1589083621942216,-28.327605157014332,-52.24202033537628,-49.94993280899078,-15.745542947766896,19.01606943962804,20.30375851719057,1.2281207222495603,-8.50621481309126,-14.752546369639015,-32.37959273412516,-46.94777245944941,-46.33801863520476,-51.38775255468644,-61.528852151401836,-46.66675036880404,-42.50738246008542,-76.4616297534565,-24.47732960266289,219.70624916909512,577.0121885550733,821.8474085603592,584.696781178969,-220.54444328784626,-903.5974717153454,-844.695114643122,-435.40531604155433,-205.39544752643653,-35.43907245489512,140.34627061191716,142.01187174227834,79.16035768814737,99.23669030627266,95.44071019195812,47.5320962726544,38.34941391398312,34.58007388288877,9.338286246398102,-3.170522188004572,-11.183158682715526,-22.898247644802673,-21.260613260802323,-16.514309970421557,-21.196406576141584,-25.73285482527427,-23.268919001462923,-12.296686688556122,5.237908529042457,22.549194151619922,40.23703963480907,60.20807180528452,77.01491493932535,94.75687450923655,121.20505034066886,142.98055011670357,143.2981990325232,118.85952920706988,63.26710618820135,-12.524040370112248,-67.58060976127288,-90.30109114130732,-103.23557267098641,-105.5269847160846,-95.57327788026943,-92.13679680030785,-86.03906915763775,-63.87066700518231,-48.647392592483556,-44.09506819102698,-29.419398026888203,-14.631674823269606,-9.680888997131895,-0.5119326890852491,7.919568517796463,5.626964651303634,3.516774471501204,2.1276348903515867,-3.161027864038811,-2.2909807107546794,1.978425973414339,-0.4144936824127008,-1.4606778908763474,0.09618388976149284,-4.103651147333684,-5.577170657320192,-0.870099381051233,-1.9670661654066315,-3.337609769556801,3.310591847488036,1.3756051668678069,-14.054047981507015,-21.654417102534037,-16.25536068117266,-10.361881605138823,-5.9314559589421485,-2.8342708940134713,-3.909337795451801,-4.648974440956881,-5.42174108098418,-11.015643192858528,-13.115056557686305,-7.685585793864442,-6.9660108598618535,-12.084319499545654,-12.306245334820836,-8.317930926278184,-4.2545817068331,-0.11108167237448718,-1.2065459921191266,-8.15144993216231,-10.736835090204341,-8.630576106027931,-14.114230986110197,-25.546508961966406,-22.30224955681529,2.2232719664278173,25.37010288347456,28.174498395151378,18.0194733056183,7.5145137584176815,-6.928887248940129,-32.88368908345216,-53.22034956724228,-49.3260034521141,-46.06050150040016,-54.57488112114781,-48.85963792455564,-60.824064201522525,-95.32445364090205,-12.214264875827851,269.0791449188053,643.3298421627743,864.5524680489902,540.80590858247,-336.96042670528465,-966.9616700357028,-805.082413375331,-376.5448881989732,-168.36719758399863,-8.147105666680844,124.35836942743722,83.20240832053084,41.42605721458128,90.71201602556084,83.82176229258157,42.853845439546184,47.57184490288656,37.358393940553924,9.54303915209837,9.719151058472693,6.9814643730620745,-9.078591110859218,-12.608605977953484,-12.350394055714084,-15.033102526284118,-17.05482742039151,-25.13118496286845,-24.725867528394822,-2.3089140550420915,18.658613171117672,29.494088757241563,52.437068089825594,82.19114069017793,96.58683676349807,105.761707968042,120.75879612877827,121.72579170032705,95.58810828559746,50.56252703993859,-4.914919705970661,-57.870974401348846,-93.70673202297692,-111.5468133665957,-112.35956840352479,-97.65254560036891,-80.97092050647409,-67.59804363761549,-49.53981742797064,-31.54704221840494,-22.011140415337056,-14.733251424525452,-6.133979507403872,-0.08487673523549688,4.115678367635603,6.284644117281786,5.347918478546305,5.013726152275932,4.916436187877938,3.1231039785097607,3.7587733123051024,5.0848084524851975,1.9100270423755035,0.2092448081625573,2.401957474137255,-1.107782546167142,-9.858286001148304,-14.16417433169117,-14.18289961993647,-13.320007154703294,-11.534600165781837,-11.353157686412217,-10.663329828934408,-4.140752796999813,0.925717826324707,-2.568367056756788,-4.996168401668017,-1.1361105250540735,2.038075649625089,5.170125626952227,5.757851878262382,-9.029639809634359,-27.77549056140258,-24.93692471759193,-10.774641732382127,-7.263980018503721,-5.006227973994546,3.34112269497383,4.753642320175446,2.653344395594896,10.249969678662946,19.451156065095216,15.790452061861528,-6.979253267933991,-43.95430817115939,-61.762092517871395,-31.921184822236604,13.517450768581845,27.22770636358241,11.964431040347122,-9.851261895603269,-29.773936221050775,-45.298858181686356,-55.901790283689394,-56.71258176463036,-54.47821031013546,-63.64507850403805,-64.57307542044971,-62.48189570586042,-95.76674971456515,-76.16018044022852,141.95485567342936,526.4760464204908,851.8670813918841,737.4434437205219,-6.067635009453028,-800.9040511911462,-897.0039796730149,-504.9902442911032,-235.30962147422625,-77.93612735553961,95.85232141773163,125.06531998806928,64.70613825315695,82.28579680088185,95.07569450483419,56.45084355603521,47.8685737324691,48.08894000311008,23.20628950123538,6.165976921609683,-7.884718343453381,-25.8822005321963,-25.896315876024104,-18.229879799880216,-19.026203232191804,-21.63980131045917,-25.857264612809235,-27.7191801061944,-11.071688221112995,20.902114753247538,44.57549188262113,55.98180790763806,76.03522607798892,103.05151804434266,115.89255843149058,125.55521627827508,142.10393472994215,132.31608627743373,81.90778056951521,15.689669708535892,-51.7794887227078,-101.12920867986415,-112.13217614194654,-109.77743827514308,-112.74397213480546,-97.32326239889962,-69.94217588362477,-60.80306645616091,-56.14039630174067,-35.31564085765278,-13.36696209429546,-5.38415077408996,-7.310011562557982,-6.3831652981983105,2.0236244296782857,2.4885610409098646,-3.9018146472526922,7.026951862054442,17.63350545719517,-3.5150479237002727,-22.181399197633834,-9.506787406092236,-4.415749135700715,-17.979748213788547,-16.709763455286186,-8.48439756703937,-11.89995026566083,-11.20643960134928,-5.734228012657965,-6.321469611815548,-5.543806884811982,-7.639180962152608,-17.284912026537615,-17.911676591719704,-11.173211484501874,-7.324591527885685,4.665308692221094,13.765886531977499,-3.1323967051880075,-19.318337719941084,-6.64328508753238,7.802959512517537,2.2860758621009776,-6.459629444215659,-9.421515572390003,-12.696728440097854,-15.439034937089664,-15.982935497289048,-17.973853807204833,-23.614369942718152,-24.757936303708522,-6.561417633929423,22.299218339206924,29.43885012098461,11.016240354801468,-5.6561432023145075,-18.14778979016416,-41.82600931225115,-61.62447390545238,-60.20981532410264,-55.250966428873646,-54.086656832690274,-49.8161627362217,-69.7718909826368,-97.81161528871864,-6.451401847660691,295.8897574569547,700.3778411246701,868.3124765300198,454.198077592024,-353.34068912666766,-841.7280206373443,-732.7860785300683,-460.63751319614937,-273.6245809568022,-46.094688385424554,127.21467150223567,109.67954085637226,68.5702894352261,98.54818781503192,95.18110922094733,64.46261424810177,61.44802865768408,49.00857503606136,25.540130622364682,19.11782638529398,6.330905370549587,-11.324870289322137,-10.380758877708352,-15.502515946758427,-33.056965605907166,-27.92478854758962,-8.310856372241878,2.4582479311533483,21.152546672322714,41.193151459105565,40.114267054348566,48.767978164899496,80.33230590161844,95.81678027665116,106.10851458179528,135.62828495869582,130.3254949215813,65.96207014718712,6.7285687753605785,-25.825380717430818,-68.23480209046605,-113.95131443954025,-130.66490746674475,-118.75184586328494,-98.80593728320645,-85.42865919086442,-72.04186943266073,-48.01624399754384,-30.012267938633613,-28.631841206134922,-22.76594007558819,-8.854836444694161,-2.9791514184322025,1.0108534845646027,6.318591896266458,1.0152008881321777,-4.249336449430277,2.3071760249016933,5.913561949979798,3.42521586594607,5.319780620989087,4.559414125838062,-1.8895862985470373,-3.733399566690464,-3.521855914709251,-4.386612034198345,-0.29608388567339006,2.185426504468346,-2.7728522805926783,-5.4382238727791865,-4.08783298705211,-1.8747916720702875,3.7330275537285083,0.9106747582829726,-17.110561892536147,-26.932307047970074,-20.451484181817673,-17.214526467239743,-14.9427827968558,-4.9948885982472895,-3.818706080612735,-11.069159604836543,-7.193341138221527,0.015449838557845652,0.9576388260601689,2.7495830786648447,-11.787410338280736,-44.74187218371702,-42.90338064541344,0.8924057415586812,22.114206442575494,9.80470521597499,2.4071859018581625,-8.559464938519023,-35.0215989129661,-46.032473762384754,-36.70708935424088,-37.029261581342574,-44.68803766518837,-46.334335949089294,-67.66683183857599,-96.52340346954236,-29.213664689372763,207.85641669647362,562.0746200235956,809.3838279081066,568.8299172135553,-207.11527337534355,-853.12732304214,-823.350354635731,-465.40340184342404,-238.63862442932188,-57.16590777078149,122.64996500779353,140.92408542775246,88.84349494010816,105.70556883962342,106.86233849418468,64.09454814050792,50.44723243501814,45.85461906786253,22.38123052250173,9.393137779672905,3.094065088421525,-11.862698489197278,-21.66667927113927,-22.272677640175523,-20.085109203631262,-14.447313879314354,-6.554213173651139,3.6087926225357947,17.135057319754782,29.810774855720737,43.930346353948465,65.89237589730982,88.63515462339971,105.50861193010346,123.33940151975368,136.06275960835544,122.1963369576053,81.00302942274868,29.593590949419664,-24.26840732908085,-73.50738224288872,-105.36930779281097,-117.26122414444018,-114.8057515178121,-103.312366177335,-88.32219113281809,-71.07986015439542,-50.85676126305442,-31.83662857553096,-17.76508573361587,-7.376508764196007,3.1697420346960143,11.363214059420923,4.838971797657489,-13.25509423594118,-18.989237195739396,-10.269059080337374,-6.0688772022717,-5.655088512273988,-2.631421097397965,-3.6956847313017462,-5.503545425106676,-1.7221068554717274,0.06849385102839634,-0.37497435473214935,3.117232964670677,2.4825200309117434,-8.360832809531612,-19.280793572215547,-20.63416765777753,-13.251383329498738,-5.369350638410172,-5.2143491547461345,-9.658129155426316,-9.846881445702273,-6.761755388492793,-3.6973279114785953,2.691538487272659,5.747790614877744,-7.995846417356368,-26.05833727913881,-24.18698090335172,-11.928431008408083,-10.56188009414214,-13.97160393225483,-19.559412285052414,-35.63204963253123,-38.785781801734764,-8.255774117186025,24.13996759993102,29.015944370130644,17.87931335269345,1.8641133692170868,-18.411724727743604,-35.58267852565856,-41.47140250703515,-39.09858630502167,-41.417651042890206,-44.430464917185176,-43.58845436895075,-67.01229793096485,-79.82483512329615,45.33579479683907,352.22216289653363,704.2894140221568,773.1270480905937,235.3158896102695,-613.4692430246703,-959.8167862863628,-649.4481765297966,-292.96972507783516,-114.9272694975222,69.60815814113106,167.4306193457501,111.19747245818567,95.52686363118343,125.91360807018141,81.72308185999668,33.5598325358387,38.4310758829942,31.967682146016536,12.396965223465644,8.000092634553196,-6.7602671707326945,-31.65172541540643,-34.688586928421934,-21.231372210478636,-14.35222386133521,-12.237172028205627,-5.960766019451771,1.7174894973457793,10.791192406692524,25.496139012480768,43.30309843380744,62.34352675448791,80.77457417985336,91.8131432751751,101.14939195727825,115.2891491133982,111.07160707799409,70.84350973448677,16.600835948121276,-33.5889893438507,-80.25895238248654,-107.3560466997196,-104.7467624700116,-93.49054431706803,-84.5849937713246,-70.2292082833828,-53.60018152307322,-37.16919269174717,-19.012685274377716,-9.175735491569558,-8.218108719283364,-4.683915117792829,-2.9161979366626305,-5.542943336591861,-2.631042811587598,1.6786397994364073,1.5602945101044092,3.095235190992618,3.14857001513915,0.4420923275960611,1.2956124393651933,-3.2890501611834253,-12.441265214591843,-7.894115829318938,-3.651080271022181,-19.405610415719373,-30.27444211725832,-21.600523107118413,-16.06945953297289,-16.12499780253763,-9.18287372826848,-5.529324696546087,-10.591018376856066,-11.783481904628413,-8.693909221633564,-8.456323065413129,-7.357181885409311,-4.186922625303421,-4.744735004625813,-7.027428822202399,-6.278690026295596,-5.753652444318597,-7.076950412886532,-6.535675144216627,-6.165703044109566,-13.711084841517298,-28.19319985798831,-30.157330542722406,-3.926357644561948,28.600924676159426,34.91564701405247,20.896367027357158,5.162073100648245,-16.871529852506768,-43.68283890685833,-54.79078429203355,-53.17122825460118,-64.44200481500616,-75.13796678879493,-59.401451481390225,-60.271568960124625,-87.42540582713832,-14.897274736074621,246.51933003243084,620.5013534120416,862.2473741112723,578.944914420613,-252.6796499251281,-901.7665584936011,-830.8916866637644,-455.20319806293634,-224.83595701550172,-34.72007918144034,124.76081086499599,117.93137202818482,74.56071083268583,93.44442063969727,82.82966817299733,54.106938011015785,56.04010403182924,45.706967909880305,25.221803051954122,18.823052177001912,2.395882422735095,-16.896846864754444,-17.523407487936232,-15.962218161432128,-16.794935206818423,-9.565972287680989,-4.533132127667264,-9.098922538346287,-7.868495589760945,12.818774006559732,39.70251654309712,52.09049298458925,60.98968812966063,86.70848645645577,116.35117909907206,130.88435204789755,129.51560664254407,102.29817677504533,41.567854373340765,-23.981962208238258,-65.56110275994382,-92.76029517091439,-114.36067281338077,-114.65295503736561,-92.71604384153262,-68.80637052674328,-52.808753577709794,-42.6171234628043,-30.74487442906837,-14.244001978357602,-10.206510616999992,-18.601643487954174,-7.445163143523782,14.5698954265443,9.783405439063593,-1.1005293029498553,10.236146614230606,13.492966837486032,-3.9135400892684054,-11.726691712237173,-5.1629711695449885,-0.5569863063025586,-4.3224256769501075,-17.239040950538374,-26.382824380772686,-21.062153896422995,-14.820016596840947,-13.23718105554665,-7.095765641872983,-2.199005851738317,-4.469470004148214,-8.42034508886843,-13.584790424359378,-13.383507875803977,-1.4908124100321487,3.088380707337194,-10.099783645937134,-21.231659692381932,-22.43099046313257,-18.863896038331156,-5.234940962092004,7.227541830836092,-1.1639223415205109,-13.512784968884707,-8.14691148123281,-0.7295243605779369,-5.3400971068935945,-8.572694707682373,-6.358812038650704,-16.6305952181728,-35.19774340159734,-24.667303974705142,14.50375500848434,27.88178651405476,5.012672197035714,-10.96173090893914,-19.060945863560544,-42.760953158883964,-62.56305644748626,-57.345689969381226,-45.956390195918935,-51.46122530846184,-63.66590088492514,-62.68378966418744,-67.67551641866315,-69.65849789365475,57.8505596623169,401.1996200645332,773.8861319568168,781.9730086684445,221.0298539534087,-542.961971098783,-871.9693719762494,-671.708545296775,-381.90876366072285,-185.36738600824862,20.47725036881662,149.06168668069623,123.27457873355023,88.66506336090282,95.63253340375627,69.69535994200857,41.496231241731664,44.95370684386815,33.90598798452906,11.678742041290931,5.955995437408631,-4.0033189834355305,-17.631878240527,-12.74394132434182,-6.0619684614212055,-8.872191948692455,-2.8128759095926394,4.748952614147161,-2.865586566822037,-3.727675389655328,19.835626678733963,48.451122096667525,69.55065915088487,88.06823022156078,102.62599382181972,116.90625419073935,131.72031231108122,120.68231552667442,70.72022215543079,10.436908437328917,-39.74704629872753,-79.87970401338235,-97.1547408373129,-89.7795844617398,-81.85921555669773,-79.6238428761109,-74.21574033193733,-70.46161032813541,-63.17484008858706,-39.74229263798223,-15.796258788985668,-9.233191778173016,-10.894548440506785,-12.389361171567138,-13.71132118394522,-8.565709962028496,2.2449236626407156,8.088962560717931,7.015655745345349,5.922882257247645,8.89209502743349,10.187986293476682,2.027194664243744,-7.774447340107859,-9.602607724263066,-13.286403250074766,-22.167277886640694,-21.561649064993013,-14.160452193296614,-14.624075452069025,-15.85614674458729,-8.665567096746202,-3.417872273322935,-5.19540143155298,-5.611470068520251,-2.9225293103997174,-2.595661478540663,-7.091373359257716,-15.572601314214875,-23.02427460524217,-22.445815605152273,-15.34908134878227,-10.720549164498133,-10.019787559534059,-7.650694102202351,-6.049813881087367,-9.679448541303804,-10.850182208302744,-4.866949463082488,-1.2237768869365198,-3.562295722915888,-6.0987397471125195,-7.364139712048026,-5.830596660199223,-5.733654156671978,-17.795029787719518,-25.525375053988824,-5.1271297765621515,19.763573509568484,21.13857853695344,14.757591470377331,12.48142565627549,4.514607682634061,-16.105839377643132,-49.45089660963845,-71.7056935783754,-65.27220480533737,-54.78913851095263,-48.77442256927052,-52.26056462838915,-87.38210982792947,-65.99437525137776,146.5097363437428,513.2061518089508,817.4098753651222,695.272697556667,-39.40473386675214,-824.1326169231821,-918.3185655035672,-525.7435018940911,-246.80654469297517,-72.1347260538466,110.74778539700611,131.07362690478197,63.41066504479916,90.3031560885898,110.89830078433714,68.56719624549662,56.04317885885125,48.59066962009401,12.077284254287207,0.5264291904671285,5.845711506738997,-5.74443079741387,-14.67835069465427,-17.319355728215754,-22.151531171423926,-16.534197878366875,-4.621678427743538,1.3105404036321104,7.532629732737508,16.744938966403474,26.149407110280144,40.63727653529123,60.95070144251988,81.8477391936499,101.591277495769,116.30529838311587,115.93738729313158,94.21397461230318,55.05458699750744,6.336454796971703,-43.71433649903448,-82.34013064407654,-99.4777209217544,-98.7731543666217,-89.8307930557137,-78.71726886731165,-67.50839243544624,-53.307916283936265,-36.38937334237626,-23.373785718036654,-12.766146108533874,-0.5633799408894369,6.903599824828973,9.613597170755817,13.782902106092706,13.98509721598182,9.850229918665914,9.945827201047823,8.62461616514872,3.7000427633824025,5.042607850766785,0.5981272385230909,-20.736915147452237,-32.5029737399213,-21.646744462863744,-11.290077887466712,-5.908952374864352,1.5188473617744727,-5.412098543604124,-24.536875148063206,-25.38026081118545,-9.988440105970746,-6.37067065989444,-16.301999707118778,-26.632559723848928,-32.73155141533004,-29.934126300545085,-20.42547513854508,-15.900013876571826,-15.011293782444003,-9.413931984569246,-5.395046044694887,-8.362078046496425,-10.124550893690401,-7.220462838294509,-2.9045526059943576,2.8607874970871148,4.758987725755212,-2.6625982598623743,-8.57156441148891,-3.835327004874028,2.423726903962587,2.1414882574406526,-7.954425885958155,-31.697084847526906,-48.154930628873295,-26.71925007345,13.72997972136087,29.915857286430857,21.173650705121933,7.099819503825272,-10.126695618657903,-30.169514075689122,-46.75283856303031,-51.29962701644145,-48.16311005359143,-56.629819784780004,-63.18395475446063,-56.766479965424395,-78.31913522229213,-84.31003414321378,67.0696844344493,399.9795321554095,762.4446048420259,820.4061828961492,242.9383310808732,-634.441998933652,-961.5583567365663,-631.1217408930136,-285.72207139820455,-114.5229628676605,68.10127874855482,151.2011662482631,92.29707994169661,83.86060590095884,106.16409998753203,64.63784095424056,43.04412369013145,56.71529897160188,36.275229006595666,12.458925813918722,9.430849612883351,-7.203821720554242,-22.987676221881443,-17.02097329242429,-12.189754411551382,-12.47240408869851,-7.379143850600514,-8.042106951157315,-11.305964950542458,4.200947506551785,31.588413052553754,50.247692654478925,64.92331746048237,82.45466795424255,95.2925534977233,108.67180623137949,124.35418700992969,114.39417295771666,67.45453532019292,10.553416908861578,-38.78254055366241,-76.83085584475997,-93.88318429068627,-95.32664913087964,-91.50907572627818,-77.07407730984484,-60.8942908889111,-54.676004544212795,-41.34291672386202,-20.658316634785866,-14.872917080726921,-13.596011416923599,-7.199299682342094,-15.265270708303522,-26.706761574348846,-16.571472229262753,-2.5533533773873813,-0.5839012161587647,-1.1653217160581697,-5.832186254294609,-12.725116052670849,-11.185373506729992,-9.463386312816016,-11.047713824187007,-5.154439756007317,-0.6665772941037247,-7.504663567637991,-12.186848006003025,-9.689939509618846,-9.193872952271157,-8.987270144340478,-6.322547015563185,-7.964863409852988,-13.482797830342317,-14.381865067476998,-9.170729825174611,-1.4445859840686062,5.632071947675639,4.286477383287137,-8.856578918855202,-19.343666691162294,-14.918711306310072,-6.529059729507017,-6.656385386385097,-9.728470183675686,-8.541092939511248,-4.412637328153849,1.8102870497905688,7.8297510732645526,7.769511042812197,4.276434091272395,3.510715623096761,-0.8730816163569841,-11.779434876292083,-16.06659971071913,-11.486672212147536,-11.753281460320512,-21.454537924298368,-34.859819677151954,-35.49193213479585,-3.7685316714583204,39.456149676008145,48.81841830079311,24.71528463622595,-2.3167985410888043,-24.636313305427475,-45.0611989512558,-56.878926625525416,-55.23108762717622,-54.12081922445335,-66.32139522547897,-67.69517847457332,-59.21459932734229,-84.7806116130351,-75.57691318729388,119.50987891495188,492.67589047784975,824.7292945960668,755.262630763714,86.20383723779794,-709.8183448311679,-913.1459735677798,-598.4272781991294,-315.24328051931377,-127.63432250300234,77.10094177398518,145.68244610534268,87.69903217845285,84.86249805618306,102.63607537532948,71.04839245862603,52.52194665121206,49.67100030775556,27.839424052381087,13.213213450453797,8.786902750920593,-4.022975873738467,-13.517049978508386,-17.711139274909694,-22.62694382263375,-18.180461932727606,-8.094223627007024,-3.2513444122868584,5.656863655157419,22.684887674630737,37.37866771518436,51.44650898590201,70.10389545847679,89.86127811341927,114.19784064779066,138.03147978215318,138.21479217524893,114.5203508825666,79.69428017984812,20.467118063462713,-53.81211672534897,-95.4084751008636,-103.38218222069679,-116.81068930989973,-131.20014020533887,-121.83888930011716,-94.05233255734989,-63.37855339687053,-44.48725662303313,-40.807449401079296,-29.446601632160323,-6.221498470733465,1.4225544829151673,-3.1885671638385205,3.817898140842736,15.009306734431107,21.366658851470923,27.557377981577435,22.09731115135319,2.7346076593193764,-12.407308790682428,-22.01638837813904,-22.683991126007626,-2.9628657443315944,8.077368228607227,-13.901948711783746,-31.312109970057193,-22.444157774561752,-13.777202502127945,-11.298778879693955,-10.995982395970046,-20.857813642133383,-23.354014723485,-10.424876210635023,-9.950762445186456,-17.06623102023658,-9.473550852526696,-9.31782821812563,-24.27179981176024,-21.20430209314047,-2.2353997857046224,5.350318255219387,6.477312787553634,7.029953539067996,-6.111283491818156,-24.474515455372945,-22.6129787156408,-1.205758304389045,14.27913986444424,11.500299634265373,1.821526091393686,-13.422970157181993,-42.07703886260201,-48.864816234791604,2.5271906364304577,51.05898059999951,26.89489126268965,-13.516254409802581,-10.443213692590572,-19.793885939183877,-60.389992083923616,-61.848656614961,-39.67892057468701,-60.472991854168626,-75.80285197618042,-46.72010117065583,-55.44932545623597,-88.48066779505182,30.026161048508527,376.8929182554091,772.738541586429,834.9646553887303,299.3257606358594,-492.75642305285777,-859.8699504593994,-696.9139374093768,-434.37096858454856,-227.00104543661675,2.8120304168974997,138.6916906094511,120.79234776351412,97.29044162193081,109.47623259150333,92.93376827722756,69.36959332759172,57.94537436712926,30.8607388077128,5.34650098531236,-2.909434139796633,-14.891256814826907,-19.021693678110825,-7.949700394337851,-16.088924173544918,-31.1005543572669,-16.573590775000433,-1.8081673840834007,0.7958412425081889,27.724049665324962,57.31307778095927,65.25201905158468,91.75884804345344,119.99559518333653,103.87179562301054,97.36362575130562,129.2625411910591,123.56141346430486,67.79393811186145,19.392303384526027,-31.411859892661234,-101.38465306778585,-142.73909828513752,-137.04756711198607,-117.04084182320832,-93.45995100348505,-70.61343698154974,-68.67657160545359,-72.98554474710741,-53.11466139858321,-27.062338227286595,-17.251174372787695,-8.804139618061104,-3.9146779482380154,-11.385061438348497,-3.9283347443448697,15.409119392184405,10.051090242253167,-0.20350493048895757,9.407525861300197,8.595391658321983,-1.7930201139739985,3.5714170212329375,6.268584841209899,4.634497316209401,14.518360454439152,10.20867112315528,-9.869641758013039,-17.278003241774403,-25.290613593480966,-35.83013445596878,-25.219592008591192,-9.541452692321316,-0.8987199213762942,6.9452271668400005,-4.4278897974419,-21.000896541314997,-10.093730989713949,-0.10523329499876155,-4.6717372193858235,2.853521223869908,-4.502771172574636,-35.30163122473767,-23.758828219837227,13.84338857796908,-4.288280633760959,-35.09240187426541,-8.875713541650983,3.782154530701238,-33.99612781172158,-26.22826325373913,30.376136815313842,35.630587410485845,9.323494287329108,17.71951590633471,14.237175226630683,-31.28945196485011,-60.681025457825015,-60.997480951957556,-68.27904982987033,-68.77687643819611,-41.59344562279008,-38.723374648262194,-95.33291339081134,-94.22430567447033,133.37855316212816,556.7473063800556,858.7521124666102,640.3648291885869,-98.83993348780888,-753.2923320146418,-819.044391670671,-537.0069424731157,-308.36382286873027,-107.84696584710062,86.22410176472337,122.67910319169971,77.9148892964068,104.34208516381119,121.01655377522647,69.46514981106291,41.90486354044661,49.2063113103915,28.36932227067825,-3.1250437504914075,-0.015127332555639583,14.383402851173507,-6.314164318825149,-41.19032006032107,-33.9025893187606,0.40377252288647725,8.242638734154763,0.6388748188423392,10.468062075089186,28.745336314948375,49.93977721340427,80.31351234972573,104.22735764969278,118.03299720062873,138.37687649536366,150.6875900800693,128.35711313896263,82.73390902760983,32.48997306166146,-26.240200377275094,-87.66869996003605,-129.30311376918885,-143.2348039301129,-136.43581376713772,-115.18149037016303,-91.97007342104018,-79.28883299287932,-65.96366913516553,-38.43538006064023,-16.782445323941396,-18.40564817496027,-18.608009228878466,-0.14430828190982226,13.011025428212967,7.581814825592428,3.0293023803149435,9.51142630751763,14.199353942041192,9.441446852327218,7.83548599449533,17.534946898121948,17.937291993993753,-2.4017198591510134,-15.09675848606327,-7.751872348580671,-3.0558185675635254,-0.8083727553632354,5.8321411574016615,-5.715825428255798,-29.31799265800574,-29.853180119327554,-17.733767946143765,-16.38772065066309,-12.995892145326646,-8.691449163745101,-19.603830175058533,-28.56544055437471,-19.545689952528058,-9.407040053498502,-10.43244929167576,-15.112967014360978,-12.158186500086561,0.40408002602331194,6.258681578620362,-2.749342510304132,-5.2897170134577,4.6376653920462125,0.44832798322073586,-16.937005409261715,-15.855379791156587,-3.668170899032514,-11.658384587351698,-21.79284074785116,-2.033819255441431,23.625208682553943,21.866755873841196,6.376866895912398,-1.828389922032521,-11.111749095313096,-34.93215231693568,-58.313820694431364,-56.857729182051834,-47.05713180946734,-52.301562418770274,-57.976345085438865,-73.68737717175362,-98.62584867329235,-12.507770983487745,289.47184017404635,686.6472673001898,828.6306102959206,384.26842276997854,-440.4365006397624,-902.2292462459008,-708.3395792648033,-356.1814582693107,-164.86235657926971,11.908902940956338,142.09698611783506,111.09022655677875,70.7851980951048,100.54539392070431,96.21225106983367,65.66495259361689,58.38238988895331,37.37840448030624,7.3453665916654565,2.229267214736316,2.8512437063211102,0.16446208102345317,3.4049687051474393,-4.656282551367536,-24.865079898954022,-29.34958618473746,-17.28491835931984,-7.4327402999254435,4.5950386673662145,26.734058679420453,48.66409320618216,70.05750735653382,100.70770474686609,131.40439164716122,150.3021651909659,155.80316812035028,131.90179901712082,67.25535225991285,-11.08585698213596,-71.22979758336209,-108.61465295813338,-127.64191851466353,-131.43454108577197,-123.7892893215068,-105.19318671214947,-80.58957888903669,-59.223317913860804,-41.576488589094936,-25.951092024376983,-14.550071173953977,-3.8101393779932486,6.893663513389654,6.570459690917417,-4.688744441743932,-9.283755898045957,-2.5373379438207415,1.3705942623155778,-0.968664224159923,0.6544298177941918,3.786643140871586,-1.949427198769044,-10.277672217718802,-11.397228012028908,-11.843484040230734,-14.633909832010552,-10.76939600944781,-3.227255984391249,-3.540352706278089,-10.120585308847065,-15.690955692968984,-17.235963255271198,-12.420167210837697,-4.52973418921375,-0.8802491173290417,-1.823539239962642,-4.828248174614455,-8.517856786898687,-8.343978389897972,-3.958215822742437,-2.3438437905149243,-5.3656363942109095,-8.411312343336805,-8.868985682560659,-6.752119778731089,-3.2518084039482194,0.30189185682898056,2.170090431511303,-0.5494263935173738,-4.403298891188047,-1.6356023108610724,4.919883977809463,7.761317901038959,4.793789130335269,-5.409899771631199,-15.82139345667619,-19.316668236157767,-26.4733695441397,-27.901542141039066,2.9873382247130325,33.72443595688979,17.73792815239314,-9.454294608497872,-8.088695210087055,-10.414756760257541,-35.25905467751126,-50.22037404999032,-47.06205635514695,-52.69934081858215,-59.15881801983856,-42.39747828048418,-44.60937915888017,-79.4639875775367,-24.83356970478208,208.93733267528975,558.9004924328163,809.1006924500791,556.5643000238692,-271.7370212416788,-925.4778986194626,-808.6407973315245,-379.4553257388318,-155.77315305083985,3.359386501100772,146.23103213530197,115.87287055592326,53.316410314765605,82.1828771729452,82.65002705327034,48.19054738207874,48.33420947990062,39.25726135414184,10.734986673332482,1.3741348198160042,-3.4973126707544613,-11.308435296465149,-10.5400048177795,-15.22737230681315,-26.069959936529273,-25.69003186844092,-16.175007813250208,-7.110888938739201,3.5954225326594944,23.097394514396584,48.95786350803085,69.76812031621685,87.8569176206739,111.25372741484156,129.26466847562662,135.30402551366132,131.6775114095098,99.83457890043258,34.69562536234688,-27.655428779185762,-68.77870483727823,-99.42062001554399,-114.38203622613335,-112.55252327296573,-109.38994067341679,-98.9033910032515,-74.020500237638,-53.85854943272925,-42.235130474656735,-25.10669451427038,-10.619797113719194,-8.53567289326838,-6.3751510858768725,0.8961886747265027,5.539908438413907,8.86313362998229,10.891514343385605,5.549774495408325,0.15603985745510052,3.1766900767021546,7.662637974733153,12.26230722770634,16.43316577140312,4.006940307935439,-17.876393857918483,-18.66246571854835,-4.978125052958225,0.35977437439358084,2.8515818770581873,-0.029756212269433036,-15.668197705467648,-24.161218339545673,-23.203363137298762,-28.953286630857164,-27.57899089312745,-16.787631808669214,-20.262441303715633,-25.67515327217191,-14.722562136434005,-6.9443024416497,-7.646660940976325,-5.4326930179297115,-8.46027340937015,-12.881020924986757,-5.800346617247346,-1.4022998374462254,-4.853957934351683,-1.1059058983105317,0.8573678904030775,-9.191555975956568,-13.111721914614838,-5.3173853794896075,-0.26117601481031905,-0.2936543325850849,-2.9003425233785283,-7.247682639390911,-6.434150735794395,-1.8034585381490604,-0.1316608644553412,1.1595829335193812,-0.37495169327958067,-8.286116105418134,-9.712633938464359,-0.6911480649313066,4.565772058310811,4.816755306047584,5.011788624950981,-1.5070550886518053,-11.013119530252647,-11.025248676757043,-5.90457461457526,-3.951735100575428,-3.339042566319325,-5.483348301274699,-11.982969405993316,-15.264057406589135,-11.83205994345263,-12.102599098528733,-24.512262591443644,-30.415317829202376,-3.310793059498814,34.076916494159455,35.69657261060409,15.783234078351931,13.324216190345648,12.91578725399566,-10.491526804726297,-38.67193644009741,-47.251304063474144,-41.87195758851005,-44.743991337014414,-48.70065455285069,-38.54205591130741,-63.167715579916916,-124.07719955463965,-66.64312795426521,214.3380413102259,621.0189668206264,879.7732444697721,594.0503491438147,-240.88206630361253,-879.6295437162221,-795.2860837588638,-423.24758384172645,-213.40801251195015,-41.20234576690624,112.37528798767728,101.7738218259199,56.01267510000474,84.39685754363406,82.71309089312484,46.35146865066876,41.114109406002115,34.7507080858602,12.045257808539318,0.05530042960048309,-6.25257894541409,-11.497836987851723,-16.89877947360808,-30.577579311262557,-36.596009516623624,-26.65450819751076,-18.620410924314854,-9.001139842703822,12.18810587073921,26.699844616948344,30.06455314824332,44.90348216367617,71.97785850618482,95.31935065418891,118.79103525133488,142.1460116033814,141.28455575244234,108.44954947146292,64.16419900235724,18.72662785379282,-32.729927320896124,-83.24272019025281,-114.55876538612902,-120.27156914629703,-113.09099321127222,-102.02852180701348,-79.74099534336109,-51.357749825360315,-37.74885155875008,-34.32770765523183,-21.829628780926242,-7.217177458972685,-1.3818891541881513,2.8395786553057043,5.858465315079851,4.4184137626590605,5.5548297281299455,7.443935101751986,3.741661173718958,1.2300335245565552,0.5224392513728322,-4.842437326601248,-5.03421320521803,5.071762765908478,9.989510483128099,8.25652333844787,9.818760990098053,3.0160519009912026,-15.77759509115154,-20.42733151299714,-5.661185331776558,3.830586534565203,-0.4232174033433509,-12.20253844094404,-23.988110490886445,-20.051572116935077,-4.078402672153166,-1.138835944705388,-8.461067804735013,-9.626355385207617,-14.39994914743933,-25.52872499350905,-24.871206375628184,-13.559138287932356,-7.229310890396384,-8.326636760673164,-12.121965769519711,-13.612135879854725,-10.34283013280246,-5.599107607014927,-0.22140523459846406,2.272544335304076,-5.325836896029557,-10.983671959000556,-0.8868190737360919,6.745401476367897,-0.7311932627841937,-3.2974182360451314,3.6655163405608935,2.793854668872644,-4.608743158487696,-11.10036352362556,-17.656430248652654,-16.244937920584512,-7.046861506281836,-4.830780254663605,-6.608331972489051,-3.429115553258807,0.19749868628719547,5.368866640628028,6.649797199848695,-8.808391420634269,-21.13546736494994,-11.589374600542772,-3.6030637556887815,-7.45551623412743,-13.632642731143768,-28.30079502527079,-26.794506812386935,18.36743924006284,50.59651179748875,28.607007874737732,8.323334602134672,9.097176567977414,-12.933152354370032,-46.94958497156458,-59.56895729996232,-61.21267731983767,-62.58793517955687,-60.69628554073481,-55.114802655549674,-58.79460826820273,-95.29151666149751,-109.35351737995083,42.83916203483031,415.4061954479804,820.8659465112517,838.6825977001918,206.0476868823871,-623.8383030788865,-896.7534705471088,-619.083050118717,-342.80589068784843,-181.76900860731826,12.927722616294076,124.08012559317721,93.54636113154315,79.88515003197043,108.04284725822966,97.3395040240994,64.3174992061271,39.027406239533256,15.086794169242578,1.9898812684962373,1.5860202887941162,-3.410530138916177,-22.191870220161842,-44.432861976382725,-46.6896173255149,-28.33846209188794,-14.571782287443725,-9.985612995557355,-0.9980061259527382,13.958101904819827,30.90412924325244,48.823943207031675,71.63294502895857,101.68347593066375,124.27647038965112,132.9880715722579,143.85761345272482,147.30776850744402,115.53165535584623,57.905903000811946,-7.111657339681811,-79.07293698270026,-132.99819372075143,-140.21187262690376,-124.23983999410456,-116.2909313534836,-103.44637511316759,-72.95202357644857,-46.92706662198955,-40.38507805749606,-34.37425440868853,-15.03266571379023,-1.2745244710547077,-7.257963268207455,-10.889564695069751,5.505557430422888,18.86104709149813,12.42262254254441,8.579410764565443,13.752446637227639,7.428081184783499,-0.11134890659706187,6.6829969011810935,8.459973138934162,5.968051610344187,12.193373338004042,-2.553234550918397,-37.700828226533076,-39.28932213320381,-15.570881360178603,-14.180128216475396,-19.191563241434913,-10.327168791579101,-7.819255656117633,-9.563710188545665,-5.865742844422545,-3.1391390307343165,11.36267261201365,27.18880973019329,4.75824515453613,-26.04052513064363,-15.731238585923125,-1.371184011849918,-10.68749350755527,-8.736484956977133,-4.6756651446572555,-23.966790870891675,-30.614489052377706,-11.269141237335297,-0.8163690279518931,-0.3666994832847905,2.291637082129755,-0.41224248269900343,-2.3862551678798383,-4.715914936973039,-21.855852662082285,-34.94610091352904,-27.323849183278746,-19.49203318406845,-18.183409790200933,-21.23375482011633,-36.23260337281708,-31.06116232518491,15.776144674411382,41.06153490606632,13.293982370723725,-5.71585985266203,0.48126559205595676,-11.905954971478874,-36.96854777898946,-47.928861262780025,-52.50246746202443,-60.82002212718915,-69.90872376721305,-69.62856156349902,-69.51886743235214,-95.31502297025787,-81.96414984368434,111.079454552215,495.6145858598554,843.3615649692414,766.0435332522945,101.14923479642175,-661.2124793559319,-864.333533130232,-592.425428144241,-339.90613188566965,-163.21731244176655,47.911285551855414,146.69441549299248,104.18620060782374,88.40688011957265,99.28365397014554,64.89529570337778,40.61170090434203,45.653471787058116,26.497075054255163,-3.222971429944881,-10.197655644100385,-13.208530699561003,-20.51286499449729,-19.50535331719037,-19.720625722782447,-27.949121188555534,-27.4157293988727,-11.088061204449607,9.550077349939308,27.7130449489015,45.39286447738875,65.85344855643189,91.65435623426701,119.7434758212998,143.15014290564903,161.88008087393675,170.9954337912132,145.03333324628284,76.92001411681872,4.902494221635234,-47.088775696387685,-92.3764954737751,-124.00283317886789,-129.2838992603007,-130.63141414885968,-130.81851020519784,-105.6277719216222,-71.97511265130132,-55.68728670351123,-41.971799081546976,-25.66592621401847,-18.803554512487466,-10.82252405479435,1.6399018716556242,3.136973869906104,-0.23222130699308963,3.2690882497130467,5.603199362846958,4.884364620530562,6.050457698752103,4.876045812686206,3.2397080983570454,4.683370472116222,1.1431398573245044,-5.0911831801642915,-2.924842184018683,1.6423078560737618,1.4175310160015773,1.8335201995930372,1.7651229678186464,-1.0324845097960846,-1.277920119356084,-4.365551900891036,-15.001748324579307,-18.256340460000306,-9.253839408949421,-4.270565913275819,-4.708385184345229,1.6513070120638034,7.209196854186157,-2.986057258862928,-19.018547005434456,-22.20393305255375,-18.20676832053298,-21.64265579047381,-25.24968196021833,-18.551251993467115,-12.04540650083203,-13.075549179382453,-12.77491268453668,-10.06535292661733,-10.110553192100955,-7.830855302491724,-1.5149657110571226,-0.01959607516545603,-5.764682444581879,-11.559520593260029,-12.602687197848331,-10.497020269924318,-7.7651991033351635,-8.067477426440323,-17.486316630101143,-22.789126047127763,2.446238786043236,37.167323093468255,34.01722266002233,9.642787365917702,2.9593172756969217,-4.756335890057073,-30.82463245808896,-50.09093353042642,-49.28610108915508,-43.914446649790655,-51.59387839523751,-66.57035559028564,-78.08113077284862,-105.22301304971347,-113.69413833488208,22.34618315958869,358.66072302473503,763.1621892120486,880.4008950500455,347.92439441185076,-546.3481572467065,-953.1308318037015,-683.1497924627399,-351.0506478189918,-187.9246026638927,10.106222608039218,142.77209435864683,101.03639689883971,75.63064178360169,107.97349055025128,84.37464295664405,51.17117354708033,56.47261693499439,45.52221581557197,18.73320923666056,2.173397811784138,-16.959780000653563,-30.037562038391684,-24.799045721342296,-20.20084292235571,-22.22019979564228,-17.373149314674933,-7.5089453577821885,-3.7122377598284153,0.046173945001399375,18.159627989401418,45.50066114286824,68.05843181433467,87.8228447670294,109.95033794180205,132.40725540070042,151.57525999915583,151.24301007698705,113.8580258832886,50.24630139265912,-15.975618358360713,-71.91953793384072,-107.80957564384816,-120.16186729563172,-116.9967173758689,-104.64233928853186,-87.13627632021807,-69.51201812981077,-50.772540322525984,-31.28018208122593,-19.075390211753863,-15.97946794711292,-14.554810616689565,-10.577890470328029,-5.344907428344559,-0.758883091709933,2.686990324337657,5.776114270489185,7.57349908976842,6.650838655328091,6.660784189842092,9.35229024231555,8.152370253579008,5.625354397844909,12.92724690487621,16.544362115139,-3.7539441784604186,-25.68455971988088,-21.91010468727712,-9.680787795542983,-5.151121185653103,-1.9863513955567598,-8.748140707810766,-24.92823330207009,-24.36055197987207,-10.318397393261419,-7.308777291087534,-10.141367991061692,-10.297921302581685,-15.303966979837298,-18.40611695856264,-11.641360789033556,-7.399495237235744,-12.40851296756707,-18.270556510510715,-20.078599343978432,-18.173219441086534,-13.586859647788295,-8.503425665883238,-3.436887079438211,1.1747509241921659,2.6516424293800522,1.0802358060053407,-1.7667329982945823,-7.783714949209575,-15.334883828123031,-17.03154931091435,-14.842400158663231,-16.81081485503108,-18.09851841321116,-12.630987225535293,-8.796181596680654,-10.229804427806426,-9.736279846741372,-11.870641955973348,-24.63146747880849,-29.759025272381113,-3.3018909571069956,35.16110270771549,43.03330860360747,22.02074123685979,6.095823250340412,-0.5606099626320273,-14.966600233949046,-36.04034285715535,-50.973676524830935,-59.59340319627007,-72.42496609276974,-78.38073409071902,-67.94502104182531,-85.39624281874663,-123.2004673154821,-43.058208027094565,246.43481339455187,662.3408269413012,918.1450326681901,584.7361252093219,-297.1968244163906,-913.1527383473772,-778.9462647501939,-403.0511198475648,-206.40968778846528,-21.81492720195638,142.4297031570199,124.63045303236063,70.59030130925817,86.84653732386326,73.90150060938885,47.17535759966741,57.205864756301956,49.65378240553045,20.95748347498285,1.7956079957657263,-20.486208183868865,-31.31644811757686,-20.402781235145284,-20.636391391514437,-31.478973681588094,-32.67514324114458,-31.645624101807442,-24.148514758418116,-1.2983991055496062,20.86237715784802,38.422715385289635,61.12709060057199,83.38206672104526,105.79948914408257,134.312325871213,154.33317352377492,154.55291711836685,133.39302824589868,77.62726857158299,-3.086080308299476,-66.54139709394036,-100.06877725134103,-120.18141815740702,-126.07674734978374,-115.78539520110736,-99.44314167319996,-79.25833888500978,-57.846188243429964,-40.12561526324882,-23.31600073460818,-12.034226894832933,-9.185059108662017,-2.8602397320443913,5.032943730493885,6.47730793611823,10.848467308500293,12.951843377133128,0.6894242486536868,-6.760198616143503,-1.2119316900838975,-3.619218823796082,-9.807103187562607,-5.289265680685354,-2.45707678494389,-5.231392216491422,-3.641964022389269,-3.4739441810669085,-6.850177196329179,-5.310518362679122,-3.7618533255802227,-7.448710229013638,-9.610103516008166,-8.061663196178971,-4.170209854655422,1.2501525888552916,1.1664410838405832,-4.7647617288156265,-5.203251261991237,-0.9973936648686212,-4.967045045602797,-13.653117263593137,-12.358673850284596,-4.94998133160318,-5.471745969595011,-10.550208099174124,-9.659652141806289,-1.9350992395118922,10.09280644753709,15.050784517224447,1.1011951100912736,-12.962152841904615,-7.211380750427437,1.0202483641171867,2.548758817481602,6.821695750948146,-2.2856147135903733,-24.848742928081144,-24.180024668886453,-6.421461453713805,-2.1270133652263894,1.2999530023537957,3.9589836486048,-15.793907298211927,-34.18889599716565,-31.912622732808252,-31.32032638961113,-32.98446155209189,-33.170283050313444,-41.35634393035144,-25.926143236477678,21.710531384681858,39.481284564665955,19.5269876352787,10.894147402139476,1.3566827249071558,-29.06134906538174,-49.22981436203784,-52.15086045397939,-55.03207055671838,-56.50499053570781,-55.561849499568055,-59.05303614624553,-90.33535730303339,-139.93888751952406,-83.74891717771183,192.47951248194698,620.3718281729548,924.5260814535329,695.2863370714784,-124.80559343954226,-839.6300186574152,-844.1114283186218,-483.2697536522189,-255.50720605652853,-77.48999937837152,104.83241703311666,121.25462121091132,64.80750768167965,86.16867474218698,93.61071150487366,53.27161755852583,45.844643689281554,47.88830704174834,22.431849456681817,5.618228469329239,-0.044877950425483704,-14.659244527371445,-22.0892237364954,-17.94882878417404,-21.89606725582955,-28.885707221976812,-18.87519434593827,0.9349695727291625,11.800249613720382,20.15806968076104,39.49069315176342,64.9319156833503,91.86488433170216,117.78177766462721,130.4838619994867,135.9618829225995,150.95562179402532,152.28053395812904,109.64652347498873,41.183036406102566,-28.432084318213043,-94.62666938581873,-135.2012550798649,-132.87269903484165,-119.22024700388975,-129.43902446225894,-145.56943050485788,-124.92409268398613,-65.81834049907589,-14.96381020050211,-4.433610303449839,-13.806941553614813,-10.309999180287544,7.803765668720313,18.98218501275739,8.208162803420073,-11.699188694016847,-12.49356904077758,7.127816720014556,17.471809240515032,6.883270471480607,-5.113503723547506,-8.487112455773715,-10.406811878389036,-9.275198627869356,-3.285247724995344,-3.895321332519991,-12.787951916916063,-14.700923740071037,-3.6026661085377043,6.575194367431163,-1.6329297559472025,-23.182712014058335,-29.2310741038824,-11.962105611747786,0.621780930682899,-2.4343324605873278,-4.185311724438609,-4.5878283891694736,-11.35104350666057,-12.81345230021722,-5.14159961319498,-0.9395227092593608,-1.2682526467000983,-1.0472088337492025,-3.1540978579110153,-5.514330769151277,-1.3643282958372982,6.050608986324521,8.502423774963969,3.8129147885149557,-6.31166935074053,-15.80632311017115,-14.593529107695907,-6.450433288315715,-5.816352502736573,-9.811814505162822,-15.69870984160342,-31.139388200423664,-26.458573857996072,18.395776668538588,35.493433156667486,-5.283291272400547,-17.80255054334449,15.051906373137854,7.11644767234636,-37.61120160644818,-48.43142390166873,-36.7639079958832,-45.177328980353494,-64.39203198390257,-79.15162434978762,-105.44868947626108,-131.5106317288703,-58.63732126268752,218.2984746875253,642.2137559818796,902.1868255123387,603.5266364013928,-200.05282278685368,-827.142389259846,-816.0196504866315,-510.3834638966188,-303.1800949161051,-111.55626718899106,82.48497740422386,120.02608729993361,80.4678972934732,98.09981118090494,104.3689153135129,69.3899273128903,57.95612163714684,51.46348469781014,18.615984073569706,-1.6845113749303113,2.0488832327408115,-1.2656570944918761,-14.80569906286976,-23.70052046276994,-27.24271758950673,-25.444523681834795,-15.623955858633577,-5.646487409155883,0.21831242905611248,13.770719725679985,40.56937508918481,70.06801756693571,94.76122901389701,114.1824507410646,128.12534876619776,139.28145503026025,143.92416066927748,124.99878703449491,76.50775706968916,15.632389979102317,-42.51045985927826,-93.86095846693446,-128.76434319948592,-136.2478652715153,-121.76298630475122,-101.9062251854619,-84.7472010595497,-66.9902722048059,-48.486910908183695,-32.950756423572535,-17.965566820837154,-3.3574420320353404,7.642061464019148,20.85044653689721,30.71453781594079,15.803286405624391,-10.333478132156873,-11.194631661793606,2.6951003567392053,3.795466388137825,3.793342985507895,5.658745150588116,-8.214253892033692,-16.737110793458456,-1.6006470717693375,1.914153181602888,-13.816037503485825,-10.139680438820193,6.749440561199393,8.929741809453901,9.468382128194058,9.39275149821162,-9.2669885405605,-26.785011497417653,-25.74879170464363,-18.962785920338543,-5.475737168199174,3.807475785366144,-19.222134184357095,-44.75916100525026,-29.53474433224436,-4.68378737236608,-3.8567891772584275,-8.03551168547692,-10.863512643968885,-19.275573837693337,-16.347229492217423,-1.1922656734685368,4.126597895014731,1.5788102860840496,2.2756398213767053,-2.09907149664782,-10.934662161785965,-8.472922228376975,0.8620618459202767,-1.1949077293743517,-10.668771902729365,-11.280114235932839,-7.734080972099086,-13.173610756684294,-14.497864766140594,7.853532874863011,33.52435287380723,30.376038705873924,11.597499605329492,1.5056973528977071,-13.803566799596174,-45.37975614362908,-69.38275331092744,-70.60248737967437,-67.82944237216552,-73.2786160935899,-70.50309074280888,-72.4848577856522,-114.34298088355071,-128.24186453907873,22.29127194247212,371.34676313332307,788.2739260059388,904.52712367148,344.59586763955144,-554.8331078597221,-929.720924967781,-648.4328517991125,-325.55207829414735,-157.4858436505291,32.58965649761048,135.54290264198343,79.95839387732863,54.4803812035075,84.70431012733306,67.07076227896428,42.38261612555475,50.06578033653764,43.61538787007863,20.95745772449163,9.063124058507109,1.1064587607193395,-13.575597316253948,-25.201414478849507,-21.5360504588474,-18.079858588285624,-32.570123575048385,-38.12518508915389,-15.427483218767946,7.229168529986296,22.56399007184821,47.6047343004507,67.04317400127634,73.08155521074018,90.12901384898514,118.0548035820272,137.28985376937007,140.02612697527297,110.30639530405556,44.51240930227923,-23.17579810639387,-69.9974816024172,-100.31118884566423,-112.74992553460945,-112.62552188154811,-111.70957734377396,-99.78238461026065,-72.67608869360741,-49.18759808375265,-31.814842933564215,-14.687930731809502,-7.814967729917825,-7.241568596825633,-0.1982729712450073,3.1556705533315963,-0.5868850091085172,1.7698652045096708,3.409700118750635,-3.6008046873926425,-6.024742056088293,-3.1503707812023585,-4.229203564923253,-4.164482930761341,-4.353740791999217,-10.721281846698748,-11.1009292278138,-1.3844096509938524,3.2426767756456645,0.17305444616261134,-3.9165640655186866,-10.515190359726311,-14.481190913409836,-7.27483559629386,2.0450394346680554,2.4947461939126523,1.1237623422326948,3.3653598729407737,-0.9046399851361944,-14.561449457707589,-22.709347237540257,-16.900695515249247,-7.6816788319077585,-6.797364004211477,-11.05983137531895,-8.661826949188004,-0.577631847440724,-2.838777395239754,-15.194982936667502,-14.8906104201096,2.233894600395674,11.88605291155656,3.5337738855193077,-1.7979184336416765,8.917431204414859,6.642515800758137,-27.68213465357519,-42.755971880826635,-1.750959207727787,35.860640536502174,28.4233439836333,17.519386228900167,10.983451819779834,-22.813443664030782,-60.09290881885214,-69.36623173118798,-70.47539685591613,-80.27254315799128,-83.77408293970144,-78.85602728733757,-104.08960681325685,-150.9293380969556,-88.25827834549341,188.9066164654656,613.1413760379485,933.4004991098122,737.2903881311623,-80.07243690822338,-836.8295039383776,-874.3863374472269,-504.5070395072106,-257.924477010832,-80.71075558023198,91.93160863120298,106.8364314865452,57.94204255593441,85.99067669670993,93.60627324679227,51.342253226287774,41.46447092506332,40.151393423085125,16.180620134239497,4.423699959424623,0.2501973870018923,-13.866361110065057,-20.7931309915891,-20.339291523932424,-24.625635507668594,-24.56234702950046,-13.489707661562043,0.6332870489480236,12.748661352248043,25.258635974053448,44.859886502929605,72.99573162308451,97.10464657156903,109.52594030847548,120.56180167291626,135.57653795005282,144.31952045338792,132.39560072807407,86.95422654267118,13.156426295691045,-61.01912716108904,-114.87216257970525,-140.78186086866506,-133.3473708048976,-108.2300877715411,-92.2109947565012,-83.49016599441846,-64.657095079917,-38.80490649758334,-22.733688617160038,-14.637926909134201,4.725908242013048,21.3098291743282,0.563244303458923,-26.624170304397012,-11.95590394169566,8.406894693684311,4.370478229633166,12.735273050071132,20.027713118440285,-11.012570309229446,-31.76863685049564,-10.872999832294639,0.2187811789446421,-11.879407607868561,-14.27070433723929,-9.283414804724416,-8.431639112951608,-7.304595347974242,-6.968928921667732,-6.669529565774532,-8.447760484400433,-19.819769156820353,-28.47278513708637,-20.350651544837227,-7.750808756942206,-3.8793136962881505,-6.174009681176873,-10.054281478088164,-11.640821041781614,-7.19555740246868,0.7737323642633225,3.670774571043431,-1.820613092882759,-7.9961483629641315,-11.135381987335517,-12.556426142681858,-6.842125993264833,-1.3518565956097497,-9.622505697623271,-13.648284789438105,-4.907430187619116,-12.250838295668462,-22.498127968135535,6.945413729891717,47.48509608877251,49.345797385581236,23.623630813012184,-6.626058857715348,-32.367761752559154,-44.40170533391437,-52.639599188131754,-63.244410384843924,-67.49229806027529,-71.97860353773521,-76.07060523279408,-84.86780420318156,-116.60760887747406,-91.72742526476662,127.24961509996973,531.139061220654,886.5720413795748,788.2141916780643,65.41568032841863,-719.3025862980264,-871.5916086568941,-566.0232556810693,-334.6249060404608,-166.23074818417518,48.187961746088966,126.4737655746207,77.48480188541515,81.89885715800388,103.4306889132049,72.2164903104718,49.95827900640835,47.13084866644353,29.88231106091588,14.674077717828164,7.257287315661894,-4.069539997779516,-9.419884844398656,-7.597588660056422,-7.716339786210266,-6.526662023203045,-8.299695995018116,-19.73351073649137,-21.235680074046208,1.6222539706729933,29.687008670893437,54.86808588647789,88.03143660884555,112.18478343072431,113.35899734205631,119.71506119104197,135.42727915555778,121.19053894893852,70.93289713720306,9.58411876322716,-54.85520887284407,-107.22721736776975,-125.56371484723152,-121.25323286710142,-110.95186628233463,-90.45690102112391,-69.40640164388469,-61.13627576685809,-49.05527345109767,-22.91956877227323,-2.1788300672548395,4.9290265668286,8.72088769792261,8.042039031250546,-1.356031413492417,-7.695540430185165,-1.5852359565066791,4.168357989296371,-5.342542217801466,-18.962232386143423,-17.5321014463011,-7.046160976741035,-2.913409896085728,-4.122798300895706,-6.049158260523257,-8.546270176188921,-8.138287544610469,-5.371949790175748,-4.4768033678537495,-3.3228199594595704,-2.917025667451984,-7.847870348245568,-11.024127965868612,-6.745788714007977,-5.098846305770504,-9.092175464928424,-8.349004907230302,-6.011705853628008,-11.776221088559804,-15.482124821389913,-7.772524526073134,-1.388933274820058,-2.6775254618118254,-1.7931947080715762,-0.1844720252949834,-4.338396399444697,-5.4240295437466335,1.4273622024202117,5.183171936948725,0.7650480673286335,-5.987000744156676,-10.499709904314047,-8.690955428241748,-3.134554012376114,-7.619878025941569,-18.6937422101292,-12.167093612559658,9.17937776309459,18.961781942519778,16.563754942307334,12.140904121656783,-0.060066379321851215,-20.429761699570026,-45.67066176229482,-70.26438797925444,-77.13129124918372,-73.96991678086158,-76.41736736623645,-71.44400671059881,-83.4258901774751,-122.29814041011971,-57.29593690679004,231.58590098549575,663.5825680105686,938.282886406024,632.692242924684,-237.02962581401988,-887.4966261471769,-792.0953787843459,-423.22190092222354,-239.35849593547732,-76.72400580788849,96.78335940338516,100.60589923678965,52.495508431911176,82.7935551737769,89.5016073328756,60.12540800825005,60.295358571843735,51.455060443546486,20.474649497218458,6.905973727405971,-2.501274854629587,-20.265038255470788,-27.877767272799645,-30.41778889192628,-36.54963309127503,-35.66572396247817,-25.846898271935455,-12.550644655939628,4.183605455948186,20.314660063560808,33.4688793776113,52.6750629982665,79.61766794007718,104.49644577008206,128.98174807268515,152.47510739045268,151.66632046786162,115.86486385657122,62.41126987451463,5.019695461078611,-46.624748829563906,-84.51931147677332,-115.76128609217508,-136.02667959869007,-128.77300513471013,-105.41760748615002,-81.14249838547586,-53.180359134966,-34.980155546194844,-30.364490212114294,-14.348086265225156,4.513900574976571,6.050603759582348,14.44524900361719,26.389424961488515,3.652708639376648,-23.87512658251764,-11.536854540413017,5.611479603981536,2.579367125922353,5.24610734014853,1.4054983282234126,-24.275419850624154,-29.85306163731948,-6.833713133867693,0.9780012807473142,-7.156761674843402,-10.847775457344273,-19.06945389971159,-22.706294466299564,-6.398964328847779,6.167054205890194,3.690924297865756,0.5991968447705815,-11.050120766655429,-29.82559542658324,-30.284558529751905,-18.745065297017327,-12.325116749297443,-5.134425891050167,-5.827251233224601,-16.495780636995914,-8.816610443611872,6.001462516541242,-5.987584680538543,-19.0451600117233,-7.696973046403011,-1.1194192661764468,-6.997043450652178,-5.1541589499810385,-3.403256245687933,-6.704336661322687,-2.0892136798023397,1.8662503065376175,-5.974932474181857,-12.785944108626571,-11.60305785067057,-13.839993106603439,-22.695264381228185,-18.630056912831847,10.322207878461573,35.72473660335106,31.764431384806663,18.23962482678649,9.543581298131993,-9.881526708275759,-37.66653586888744,-55.24362886626221,-61.97695775576275,-68.07357739602745,-71.58801507991572,-65.55488578259153,-78.91084534630482,-129.38649032489957,-113.32222312502076,107.22548392800886,522.0291738116528,904.3251439635299,823.8441676821984,84.01222581787985,-727.0782574553949,-879.0695130709901,-551.2579613457153,-300.8035244406332,-132.8981463402304,62.29778549163598,123.24841767764644,75.80628051717719,89.60737585623288,113.19557635638898,81.8253056758931,58.31417899023185,42.61622130534751,11.926000900760418,2.7083042965363964,6.436686637627877,-10.669035370080003,-26.40284195831024,-24.512997695105152,-26.601599605516043,-36.514730301983406,-36.029133640916605,-18.208374206143446,0.9752481526537711,1.7568468759000577,0.08618555214778922,28.21362394721256,72.31128152219856,99.111859126517,115.03980077798981,135.40776193411602,149.61849632449335,140.62923129158378,97.60797473045757,30.621977936616666,-30.35421584462544,-78.94642020308726,-122.73557494062507,-140.2173842068891,-120.86067546504688,-94.5948307953123,-77.61023849350045,-63.17729125127782,-54.70094873227917,-46.96990422394223,-24.970667764201437,-0.7582796184364256,6.2640953833083906,4.283510987885631,4.295329120049878,1.8998712123345882,-1.355871202696349,1.1277908733327422,3.087079982943955,-1.5960521481850414,-4.476918459834376,-2.3777957114611077,-5.721876032415668,-13.002910713743157,-10.983806696846093,-3.500442195274257,-3.588108084068171,-8.376919097967331,-9.89547806682345,-9.50367490981483,-9.001731406472663,-5.414284603080542,1.7677837437297654,3.0651128211752976,-8.580651829953574,-16.42055835672516,-6.020453626389294,0.8755225532997049,-10.869499988045225,-17.45203502367303,-6.842817858275112,3.438722505312878,5.757386248498385,4.163929833900668,1.7843880071503175,4.080731391353762,6.909923521555987,3.3198907355013967,1.9624767002176728,2.383151488703936,-11.171909645221845,-29.652280330015532,-29.031912622123144,-19.43096702226178,-30.095702513674986,-49.81651455406772,-33.51396604919098,17.669076700061552,46.02869915073809,31.110986103009097,7.626262842340576,-10.380460264644643,-30.96803470002161,-47.96985195315398,-56.72233899962467,-60.03223230975428,-62.46553372409358,-67.53801461629601,-72.62102713357599,-96.0286541374467,-132.69022923901977,-62.46830570657778,238.36172215224295,691.9626851922209,964.465858097365,649.348280505498,-191.63065095485754,-835.695180678133,-811.1487380246674,-501.2432537053409,-304.9705065468838,-113.92627771807659,89.28869938636979,134.0709198354026,88.8778667754427,83.02372287279016,76.84927648633315,57.677298179922715,57.61051198892105,47.848809978983695,20.475226021614304,2.7661679382860633,-6.554553808315251,-11.97988132396721,-12.788734052969861,-18.060021657876487,-25.46854204829385,-28.39795267819346,-29.36446950256773,-24.205719142924213,-6.282198952931186,21.943800048648534,52.228757737118606,73.6298547218203,88.12586303385727,113.38323572421129,149.7738849061621,174.67297759071067,171.87491187408304,136.1452665111621,70.21471489163642,-5.66288774848561,-68.33443326146258,-110.38367567975352,-130.40999126729926,-131.20981849414386,-125.60002606685951,-118.23140108158529,-100.10409219891241,-70.64535773665423,-40.77940969291117,-22.304004261009496,-22.17163886299229,-28.44278837139692,-20.78523976426758,-3.329781779099278,9.763339793171312,18.01159538931621,13.211681012250693,-9.536961404583415,-22.226569716472227,-10.666639091952124,-2.5651429632405893,-6.935086988324674,-5.290479496544851,-2.4421616021275128,-8.825531984261975,-12.03855470361874,-7.795283577136043,-5.003010327821865,-3.962751099528468,-5.153542306828493,-7.517875050483038,-3.667291901650742,-2.9605414273768673,-15.066166795635855,-20.886210714041578,-13.136619827139807,-11.373300612935163,-13.472623632157951,-8.236554163683357,-7.5526222774517855,-10.577122465089808,-4.711466074275904,-2.594928293306886,-9.180423596307023,-7.5441191283877025,-3.0893307349300088,-6.247098549893664,-5.690013709437398,-3.624714073458481,-8.842130240986101,-13.304799859578868,-21.369658552681763,-29.581744153003072,-6.823049990524758,30.792417668778278,32.867289159793735,13.362583058196922,5.364011830395839,-7.349137528369201,-31.65393126274398,-46.529163473345754,-48.296934012622295,-50.48830530379846,-59.5695004741034,-63.24238489504561,-70.00012542220442,-107.22337150996566,-102.979666704554,76.2443166212108,444.75914482723454,839.8779184503989,866.7715933216549,199.12078539708045,-696.5188851866725,-953.1617411047584,-607.4012849588014,-313.2995243971841,-147.9544372265581,67.4798580939779,160.2471704221137,94.3251635084363,75.28099704659857,96.49874648457615,75.327276543675,60.98926806942062,56.9904021730518,25.80077030621569,-7.210431378025001,-21.881122608076975,-26.865768419236925,-26.334535496418546,-23.033320423579564,-18.61896225456497,-20.414424065605143,-27.303177041234225,-19.053414771796096,-0.6431992679757492,7.915312936026131,20.289758762676335,46.68547043798206,71.91738317522741,96.4252542124168,125.27153880305008,148.2014676804362,157.1715927793564,137.10348500360786,76.29133805891199,2.8565344505525134,-51.459196843296205,-92.0416496730165,-122.84202477116725,-130.25434293183596,-118.48746037480166,-105.60460499666306,-92.27205330332052,-68.12904165165983,-39.248086446862054,-24.027962403369912,-22.736605179780128,-19.39239000938257,-10.416045095539012,-0.7745146299692145,9.36605268189017,14.711520787061971,10.787058943187365,5.490900682609997,3.997118269261456,3.2584970526847563,1.2973669102358159,-2.5624129758231042,-4.697769070318365,-3.324893121772625,-6.093172999857941,-9.037251717757405,-1.4720871841959156,1.2550795517497448,-13.573023985496782,-24.036564831113076,-17.920296348705502,-12.287280766205392,-15.000311733163922,-18.09915973908047,-14.79085070367697,-6.0526218959214475,-4.204431833382252,-12.854271900351613,-15.98589888190683,-9.262195557475248,-3.5610680869755633,-0.12776233189936725,0.7310509738144937,-1.668323155875644,1.8112276338578752,6.907148357886868,3.7489615172973814,5.837716725674744,11.420493023389895,-3.1678892854058933,-19.89723235649027,-11.922868640159834,-6.105778966724824,-16.825126571513387,-16.07932435068677,-8.184846986860201,-14.029887348507938,-16.02482274907517,-3.5799974466090934,6.1786121935456055,8.7240427283697,1.963899649494234,-18.808871649948486,-32.62439367872444,-24.099976718635517,-12.064010590395979,-9.95958885370321,-16.337390012465814,-27.41184908267227,-18.65992589478307,17.300911800889146,34.615258911523824,18.728499940577812,11.288091027396248,9.755041384638558,-17.282313175020136,-47.25141719631539,-51.94489807356878,-48.45342727036731,-58.189858777740696,-72.05831965293208,-68.46986938634498,-74.94684955582738,-122.75243017618749,-108.80422707127327,106.53240563254866,506.6199936353643,892.3280356906472,849.7677741818538,118.01016953084468,-737.2667357724121,-898.19152301645,-527.1066438946763,-267.13808644636185,-129.71026010440795,52.617235570244695,113.08382928486024,56.65890366077814,63.889486910101525,80.54320278820215,40.970527425488235,30.157970338948786,43.94800996298206,26.03760318585222,7.515645230956762,3.90042592745046,-13.11910650049261,-31.591363466528485,-28.25090097488312,-19.179630631897368,-22.339963690423176,-24.921369219311128,-14.522942859076421,-0.4206436112128138,15.204121132421907,41.50749517391892,70.86316067045632,89.08071713104998,96.48467154669432,102.76252587806117,120.77171196432823,146.7755938034217,150.11370489127623,112.62777998736098,45.761265980553766,-34.140502468519,-101.84196872391799,-131.03731242449163,-132.1800724664553,-129.42323577765598,-119.41391133297475,-97.60808172521865,-75.08007524566884,-54.53162561024568,-36.05385519392081,-24.88341671064124,-14.485159178428656,-1.4320671563064806,1.2598661499370323,-3.087244703222151,2.7004301916191586,10.380365649841792,6.5750655287365944,3.1093012215312115,5.6886035981848035,3.3674664738465196,0.12227705261039645,5.0039355032653035,7.139406128121461,-3.2757257454927,-15.11707349911109,-15.986386567196032,-11.11702058301848,-10.85932761939453,-12.20643533183899,-6.595315877625474,4.842195984532197,12.824018305560053,5.173727434093358,-18.23254585687398,-31.500493766602315,-19.055308372211123,-6.57077408003979,-11.012812159216587,-13.09013436248803,-8.693337234477815,-10.937570158724931,-8.754708032786658,3.0106455136543637,2.16389489268221,-9.590682940383568,-8.90818389345068,-1.5709924006721145,-1.034282762309525,1.4553540952802289,5.407593117780465,-0.8295400359701279,-9.13449535090153,-9.212130772632264,-8.42061669323401,-8.0149082471231,-1.6804198402419495,1.7284475198173155,-6.418619438879306,-13.953532277802926,-9.794624761561142,-1.8586392295219447,-1.3279071597794605,-6.881622954825177,-6.743658371942367,2.147414898898952,5.332917452694433,3.2266125532104297,15.293656564030943,26.162618737936825,5.852108851282733,-18.750787305411798,-15.182973609415697,-6.702870970892709,-4.3859738390062954,-0.9573286830462209,-25.289186988146717,-59.63881646530077,-28.721121315523646,37.11885065349274,43.66877891430887,12.550193020702071,1.2044062711080628,-13.813298289961427,-44.59937467385413,-60.498163969278245,-59.666272389827625,-62.580461969642386,-76.72321575687127,-87.02697020342069,-90.71351083331982,-121.75682552776803,-131.85507914098577,41.477663963716964,444.2886583729607,858.149061814731,889.7872085656927,302.00881662232274,-527.828652724107,-887.2554455629836,-680.1974516251698,-393.6183811912071,-212.42400833611146,-26.409799968717778,93.21134518662811,92.85490684872154,86.85864229511597,93.29175059775658,67.11627905885753,50.71710998255037,54.652182902832465,35.86882447511333,8.130048319959823,-0.30324841644432277,-5.261150684662265,-20.579479718929527,-34.80781002008344,-32.368363330841106,-15.32115120985673,-8.203327537679982,-18.983495208974727,-19.287537567458127,2.6286284480515505,23.946086795197566,42.50765313965061,77.87987351075397,121.30809610200126,152.6615208639066,176.06769634373606,189.96632330639196,174.4675945933184,132.0021394381825,79.39521543366624,10.126248665966802,-72.21946969619414,-129.2319484307664,-146.3852504527507,-144.09859715706887,-126.73427348226573,-101.57857064513057,-92.13066978213922,-85.07367892892029,-58.1429785484669,-33.162364230032786,-21.16385219065637,-7.582717541096752,-1.492845019110689,-3.544864103078396,2.879087926383434,2.309511083197904,-10.510452571354413,-9.072907512644907,-4.442813790586886,-14.425859634459552,-12.279717814410056,1.6154136400603143,0.2023417945122148,4.516389966238018,26.74519378661958,24.200953075274985,-10.646085245856966,-34.323204030662616,-30.612427193989525,-10.47139858612071,11.754394660014825,7.630018953065633,-23.5000487981945,-33.121592545568085,-8.215003775606968,6.255505684390963,-1.9066262348604823,-6.4067715545224555,-6.986058638431976,-9.026728697602028,-4.561481911588865,-6.4649676477012985,-19.406839102148584,-18.52640502722852,-8.695770022417195,-11.845449421808253,-9.408207122079665,9.036317782769714,13.52482954359813,-1.1054625567473995,-7.015708269251361,3.193500920337616,11.763512926172993,2.042779818216246,-17.368861592559945,-20.129334287566415,-15.28680704846947,-30.044178077382448,-33.79668402987942,5.405544134141045,38.427154463805515,31.72483967763631,23.253033847358342,13.828503210278377,-23.827412469197768,-53.211682115305216,-48.4192616768202,-51.878826064886965,-76.47691029279017,-83.07528744480514,-70.99383507049464,-89.9410696338816,-136.65764683702014,-95.78630660482682,152.19959599576447,584.7928052050476,944.579714070609,784.0372941371895,-9.841876089778054,-779.0114436551726,-876.5578486804839,-562.6000691846195,-337.85536821850627,-157.31903679373102,57.202953369426375,127.26594245264928,89.11331837582506,105.63543962730951,117.21900730812506,68.016357939303,41.539219145197016,42.8868814611675,19.852436912170855,-4.384369102787638,-6.196706183391778,-6.892181968515559,-16.914421439474538,-35.55590589606538,-55.02368982255085,-53.13584326645306,-34.51125701002903,-24.151271699593224,-11.792280169372011,18.07306193257718,46.71597420342087,68.397535304696,98.34515498160485,129.01785732793496,150.193124721882,169.1841332257152,176.02622856365332,148.12490063383495,87.6127362028494,14.198753502423662,-56.33603841854405,-111.46122608377921,-141.5690000466421,-146.31729164818304,-133.89741606199232,-113.29192799981791,-91.3353761966424,-72.23055658855854,-54.11974684008716,-36.61798066029252,-24.071181864556316,-11.988512091871783,-0.3743682897591256,-5.15424006826872,-17.049501911573014,-7.916922372914687,7.5769235360732345,4.639231525840348,1.7210308264283718,7.574970503698264,3.573118235684184,-3.7642277574996683,-2.1397706517105437,-1.3020695386294605,-1.4585811711727725,0.03340979225859542,-5.142040456650564,-8.72422341713356,-2.6384920132054255,0.2980296642384648,1.3719133335390463,6.391203154465401,-1.641891240144954,-17.96470807116104,-14.866868354231363,-1.7448332673109128,-0.4880777568258523,-4.415145174476063,-14.184458812370003,-33.17011699765346,-36.66899479918128,-18.581782450740615,-6.0070280099659215,-3.920277605743042,-0.7508632985064025,1.5105569164152683,4.698076335799654,11.859741005402693,16.565012773462577,17.135027146847598,6.107619528044793,-23.778779733279297,-45.44039878787847,-35.856329554648745,-19.734459555614876,-16.52567137939545,-13.710111685901744,-9.981636991977108,-10.19519525765287,-4.7439283319665435,3.7639530458276518,3.5839952442267418,0.6594661900877838,-0.4952665113672481,-8.841353462288975,-21.905469442703826,-26.124534982804906,-20.55775796523487,-20.873933991690244,-34.98224972528312,-36.627114562407336,-2.461230686731385,32.11497603066107,28.982708243517145,13.198406893914722,6.87651946489003,-10.562747264883576,-40.67599833389575,-59.694967068025385,-60.95047047004602,-59.5719002346834,-67.31429383665933,-70.0106307402417,-79.48622155813186,-137.49775524827038,-166.29649639149451,-3.468654365032023,381.92899897955084,840.3268766744039,980.3697164673522,393.18473462415193,-554.5549447892342,-922.7796336726233,-606.3741820731113,-300.23692491267576,-176.56961654010098,1.2962993323689744,112.43401006556704,61.66532286510381,40.29813320347829,74.21312589386157,60.882938521640305,39.72562931323756,41.874279158802736,29.960346767198924,14.65075732757591,8.39414656520948,-5.421877611871581,-20.005979307538823,-26.891096092433692,-33.3048601358248,-35.3200454549834,-26.3225453544102,-11.67377894507132,0.14561163921624853,8.389790246911872,23.54750493416782,49.17725864093548,77.08607302044248,111.76790308228337,149.4940362663811,160.89828891459905,153.31103350519396,158.98360834698065,147.42334324771414,85.05574088189061,11.283928433476888,-53.49524275891653,-126.38788978634167,-173.05860994735463,-163.6487138689929,-137.47137650291216,-120.67302686250859,-101.12889858118228,-78.90870810330355,-56.06719859635601,-32.28901759971322,-17.111424551553846,-8.035520862546868,-0.1507920775206344,-1.4748972180803612,-6.404806417540719,-5.086503048433517,-2.7006542347741593,5.120373207118565,19.11287691778358,15.347108673728743,-5.269942709507273,-11.058276584313539,-3.7375983221943088,-4.52159298242319,-4.301657032759502,1.4994823305251437,-4.077700094470302,-9.228777069915921,5.62961580091239,15.11200826394449,1.5560418958648938,-6.965562640848454,-4.401341124760153,-13.951753362519518,-23.168420120696258,-10.817751441835028,1.2499667146048097,-7.340588015011573,-19.508980877854434,-17.00479873541545,-2.453408134702091,8.344386428881007,0.03874824828362833,-15.577079032434153,-13.727393595856313,-6.263478975644713,-13.633846874794106,-14.93778229215829,-0.11760622122219999,1.3868770122947431,-9.548369591021077,-5.927237182668497,0.44197206423627833,-8.546639055845574,-17.66853421649065,-18.95990809129254,-20.647312176458033,-18.044280809591594,-6.443349692988166,3.19284454309469,4.944844672369509,8.694270388782229,14.177390522405842,2.2179415492065324,-20.647561056812137,-19.789444390824855,-2.2657699512064475,-2.4002137420945786,-5.721684392072206,4.875063699705521,-4.974723387867623,-38.636317806951965,-47.00760987339554,-25.218229625591253,-10.550316460107377,-7.986387336298222,-4.867495013746183,-9.239963091129116,-26.36461602292856,-31.983015707033207,-3.5958710069942255,31.447879129077734,32.716709018135084,15.33987225438222,7.73526154645171,-5.706433705865577,-36.541446337018144,-61.17949169775619,-62.63478521610551,-55.909548184194755,-63.1084730710665,-74.7622763729012,-84.58316954878318,-121.89468927160621,-139.18536732542333,14.760066178053279,406.62873391109736,872.3552475962076,991.0127316653939,410.6802463929254,-501.35567060274326,-916.3552953931255,-707.0213267753759,-428.32276888055276,-260.52317687254885,-46.51641223319294,110.29383406645613,109.05646143538911,85.28221287680222,92.75841215224014,80.96480567610656,68.27822234272081,64.61861228006251,46.35812006027402,23.641567860092085,3.894420085176323,-16.18894658678801,-22.51386527157488,-15.469762806232014,-12.568029729242006,-20.043736237297246,-35.84618016409298,-44.35419498676271,-26.154460423451077,8.6008506466286,44.96209705779964,84.2916763763082,107.74119655472262,107.20758409586949,125.74082108445602,173.26791245540397,200.77850837988274,192.7265029786497,154.95534046087826,72.7826098249038,-26.959079126295666,-94.893629939399,-135.7513466768994,-162.23126743512663,-164.20134429956153,-151.66430994168132,-132.03674726443117,-96.86579545765443,-59.15500740217059,-32.1015322243351,-15.380605892150925,-17.234008928595678,-25.259465084743283,-14.523788294123506,-1.8607363069975236,-5.094126036430303,-3.5404056360293623,6.178753550966434,5.819895421712182,3.0569822143594614,11.14136320835344,19.370749251581657,13.785191602008144,-2.239800189959709,-12.342323225473388,-8.947076362210222,-1.6200664609051412,2.3705068430218894,1.8750762757511978,-4.271950240716944,-8.28408666973089,-6.494024055895418,-9.57167160463337,-15.173692566384501,-14.152633680668988,-16.914318886417796,-24.44389791982802,-19.952245178299783,-11.603018853097332,-16.366220311469583,-20.564987543849274,-13.284476710316802,-8.883928167577015,-10.143619792487907,-6.1012569769755665,-1.30044167768499,-3.4470650885346075,-5.094961459147026,0.31003404552407154,8.00014901491518,9.298257713187603,-1.766870138602986,-18.141522961132317,-23.124390364055365,-15.82497332127595,-10.780626713299933,-11.153763263025965,-8.978874126398257,-3.1543038786425246,-1.6340770587771658,-9.960025699981962,-18.027308641281543,-16.475617990353843,-20.774092155752907,-31.130325379651445,-9.842758172733078,39.13332982026959,56.400278753683395,30.737770964644383,3.140426848107122,-14.086876854697381,-29.432375565045923,-42.198114039986166,-49.383963824980995,-49.629164706779065,-64.39285080352222,-98.78274372470821,-100.75926498778841,-88.46551605200608,-131.96143684640182,-121.79476689696723,112.32430223102531,534.4345258067474,920.9428813290245,852.9670605976897,77.92945328343575,-787.2650958230698,-910.9555161470958,-529.922726591851,-293.026061973141,-136.62314568040603,82.60321810469108,134.29405724315353,59.62348956358283,72.58459470367907,94.25152057114583,58.94431035451966,51.670361987001456,49.78368951992176,17.549586906068086,3.2805765378702674,0.8829613735625332,-16.832342453899066,-28.318205988799335,-29.08485821202669,-30.753019324846615,-29.077525309605946,-24.67967624707116,-18.19588446970041,-5.240832787706793,12.746188249006078,38.313318360061444,70.83987937232874,98.94984121297642,126.41496065986077,164.7020598547001,195.95172613359213,191.62169090558012,153.20221054508585,96.90776383700805,26.734223570573022,-46.29113320057097,-96.62879979088649,-122.56974484254509,-145.13885444693813,-158.89195788936846,-142.02053208013092,-105.3452033009738,-76.06377372784414,-56.914509579005454,-36.81648730246333,-18.08169294296502,-12.271909764750163,-13.717795752647987,-2.3945202230408,15.868597584247773,19.15653723267143,15.171059732169994,12.90379878367218,-1.5753501906832383,-14.065366693972054,-0.8252284754664672,12.179781404517755,4.423868237284054,-2.659068602002595,-8.483239903536262,-23.104574698229232,-24.858607481864283,-9.956865081352252,-3.31279053418805,-4.308685502613169,-2.314847247174196,-4.955345338082417,-10.093661913664825,-6.510086382858169,-1.078849631999713,-7.241323144603513,-22.144463447778783,-29.72788117316716,-23.110807592408424,-14.205652583377425,-9.95612470295995,-3.070411704963437,3.359257195690521,-0.3477559986856811,-6.974132588725066,-7.201564055786951,-7.124003655764788,-11.70980295827339,-15.229884912635494,-13.879636863541982,-11.60343667619366,-12.465161265937358,-14.080633261746215,-11.56092792892695,-5.655920853803911,-1.2183760097064216,0.021054139833962537,-1.0528444272524702,-2.696365671575533,-0.09144281300340751,5.498263080158125,0.41164234664394783,-16.983217897242824,-25.51047779418738,-16.994016055428272,-6.980322258703913,-2.2684795293897917,-1.1410048799218515,-9.450166984330224,-21.409005113000347,-20.565662526434373,-12.093375846678306,-9.958236395704287,-8.298550732540065,-5.269765932379315,-12.062618891879461,-18.412154235239395,-13.083297904555803,-14.933793251508911,-16.102554898423612,16.28291958596935,46.88560919920326,28.76951888085665,8.04552667437856,18.737997947509868,15.52822731838025,-11.761472006858018,-38.92048088339422,-68.98193780902808,-84.51174947639251,-75.54449750472429,-70.27909790786116,-68.39938978283918,-89.86918690714586,-151.11951439489746,-108.23863273496934,184.33406598449264,641.3208822735204,970.8839797920735,741.1490145005595,-127.03373424293491,-875.7558990161441,-847.6931925572185,-457.48339579262955,-248.00059813551044,-84.49445210924173,99.08386044312255,108.07436471124039,48.74472033972606,76.22745729438114,87.2049537916655,53.311658049950836,49.3668651289196,45.713888893892815,21.877439978567782,10.987672820630719,0.4228727412166249,-16.882459223583727,-19.84708556227882,-22.544998460599828,-38.16914847354829,-40.542896584440605,-20.152850723515872,-4.24428564455776,-1.5824108202175964,12.012703480551671,41.65902221426175,66.203314179663,86.90864575054866,118.31600178441023,149.50548385236138,170.18378696232008,185.78421266276018,179.443946066043,127.77113380829311,48.89374440405939,-26.719565136224112,-94.44330520538098,-143.2346167799197,-151.87353041322487,-137.77118377717926,-131.5413347942363,-117.41789859644922,-78.66639635175957,-46.32423781077267,-37.55698767443123,-27.78571487690985,-10.330086981027598,-1.5685892923387748,-1.3914061692782411,-1.730483807419649,-2.238953292497083,-1.9866502924414497,1.2720245728559902,6.4273889940848825,9.251460749690583,8.447629651320053,8.09389230251952,6.012063973375245,-1.5247211236352065,-3.289129127526678,5.541991820060549,4.986191139076256,-13.086606548186445,-24.2097420200561,-15.323578629238547,-9.182232640608351,-14.502020599055918,-5.833292353235368,10.37914319670002,-3.6224193657154586,-30.015789387186917,-27.28204813989062,-12.951810125080492,-7.180893630443801,-0.5853684456603041,-10.115077629410386,-34.1803324008946,-31.05813538902884,-15.354108989374318,-20.42566271687212,-13.391775423683391,7.7538591012955855,-8.26665918054184,-36.6041546987312,-20.22028658119495,9.180319994766155,7.871992579489289,-0.6047619668101234,-0.39970308719251335,-6.598481735960451,-5.798569210121546,12.089898616684941,11.03788676031876,-14.611222905111699,-19.888890439283955,-9.355952242655789,-21.254073805038267,-35.04334919441482,-26.82173529168752,-20.255674841212453,-12.043715460807837,14.960865914591867,28.726759167139466,15.944189411306867,10.329626028747525,7.54912141042425,-22.044795790139,-59.702619585505985,-69.77138753404401,-60.33631346111268,-63.16985259169555,-73.95040719631679,-72.42913168865257,-92.36590475235084,-135.9659675760767,-66.08652393304689,239.88222334120607,700.7078464648957,995.7068118848011,699.697029521861,-162.4166368308695,-847.8998293620758,-837.0690765547946,-517.3020681344219,-317.61060517392593,-126.0949082428305,83.87884330956564,128.12162749817242,79.85667302084096,90.50574007858509,103.20557453737213,74.55348702843722,53.87933647786372,42.13914904150262,27.251570920025987,20.31382318070446,10.633229438808375,-3.607778303118155,-11.02961423983326,-26.242609307635195,-47.02768433548029,-41.965308516292325,-20.21916347502306,-11.421913159080349,-3.151441913022804,17.036527696383292,35.500022584134115,57.84470418710211,93.1833842028829,126.57434205070358,155.62389497384746,184.8923463723121,192.17196102143726,160.53133201607085,100.87561156978194,26.847439716387974,-46.68056540997473,-100.88419063764783,-133.26604168809067,-152.82135817575144,-158.8095297215559,-145.3461458207105,-114.57224136208433,-78.28942376202056,-51.64700211184298,-38.18873744849718,-27.362032854533552,-15.8436398183025,-8.682654388902048,-0.5100704633061817,10.222787172350543,11.543432980314979,7.792789667021092,10.923039215847332,9.316878531512131,-0.6837881667964183,-1.491775646554121,1.5201026318246846,-4.67805424277185,-6.500745657942511,-0.802502624932405,0.3480703208018152,4.77397134008568,10.892574267291108,-1.306634829082995,-18.45807252166125,-14.62037861285408,-3.367936573554875,-4.276342374882837,-9.943763728289763,-12.976209849181629,-16.87360883239068,-21.46319467827523,-21.74286184409961,-17.015195496780173,-14.866655561689058,-18.062739333342122,-17.327173260101496,-11.944901048252902,-10.856740530629427,-8.663691332911254,-0.06930115973220374,0.8552611309516127,-6.890520875248814,-4.514772906482161,3.934821857658889,4.313394859626882,7.501997070556179,11.32204329985624,-6.615374846401998,-26.492007664718624,-16.530640530226158,-1.4125063966726525,-4.2004684101286465,-6.354060326896008,-11.062121567843523,-27.677486484550627,-29.335543884153317,-19.131068480143693,-25.985703974302353,-19.99675940316853,23.429542185409588,51.605726060314495,35.167842728901725,6.651980700238626,-20.363887068552664,-44.92846542231782,-56.13792507082018,-63.77747114841252,-71.62199492161014,-69.89880590256267,-67.52871717769243,-67.51200771763422,-84.31617692860816,-132.26423384828658,-113.45171830877055,98.87645442613268,494.38916601152204,896.4087312776963,877.1635873213883,133.3131661251975,-754.4979342420328,-920.23758331479,-539.6954950745766,-283.69006318416973,-139.4918902264747,66.12619921425596,132.65166051049457,68.08791538975689,79.93677284409036,106.6918767593253,66.40762617156477,47.96265135404438,54.302390505287846,31.978406761059194,8.507809165371869,-6.085328954150333,-26.31633533049487,-30.40613243331643,-23.300021731907222,-34.21836203862381,-44.814131644534235,-31.97564085937765,-16.532606420841994,-9.452730613417339,6.713125245204267,32.219139743590915,55.310931988190795,79.5250250796615,108.08512101239211,137.19035913791646,165.9469370592522,183.91550682974693,171.52630289400133,124.92934268870675,58.28045691570047,-12.33040263230838,-74.18801954704796,-117.22491308672036,-135.34750358167153,-131.10095617936486,-115.74886987051266,-94.62734426885888,-63.880538566304665,-33.421219107988136,-23.95178178268229,-30.304602799649558,-28.66407072744863,-17.287744219184237,-8.314173869018159,-4.998517443813455,-11.001700633574714,-20.92697510011804,-16.01475215214556,-2.1042066691278762,1.916678126677457,6.17671764314348,12.39830241826074,-2.7179425711042384,-24.58971442225404,-21.13051961113627,-9.976030544108564,-11.16414743320141,-8.573756009296357,-5.153425482247862,-14.492702894370503,-16.840326091422227,-3.418660784858167,4.030579965858159,1.1743423304570761,-4.675570127220542,-14.440512816414437,-18.032324507703564,-10.463979737409202,-5.133408400913636,-2.823515415230947,0.03056937904544732,-2.644483426259976,0.09946881963846188,12.545454232304841,8.079030230724037,-12.759400794753274,-19.45650785339525,-16.868091092280206,-22.91763206385087,-25.445968696687242,-16.76917846622645,-7.4271278227152315,-3.211527116343788,-7.818835857969038,-16.613829876418624,-12.967541542773654,-1.1428143872110965,-2.6214990601338464,-12.665959585893088,-14.924777656094868,-20.356848523464752,-32.55321721249979,-18.433262372692433,22.709414423260267,37.48330779771538,17.837956965207383,7.3540462414371595,3.5700196346782604,-17.941276460041756,-42.197416573432584,-54.645626707037934,-56.89916942589484,-56.29438355702885,-64.51071867584814,-64.90221779762672,-67.74346071022467,-121.75388716687793,-127.98201049568792,105.98951868665478,558.7647498654692,948.9285568150398,862.3508434415032,115.49988301079512,-731.05070133774,-919.425119564092,-595.9926691884924,-347.79155412319477,-184.2782690044627,28.586634568666234,108.92274221893021,65.17615245534758,80.16594436368851,100.01958843074178,61.281203672400466,45.788882588751534,48.34157876214923,24.63853111240946,8.00792851220378,2.005984982320801,-15.916355500384034,-27.315353888617732,-27.273562709915254,-30.071700965641483,-27.203706097474672,-16.84182984917176,-12.981227474925875,-9.928115244401873,5.073744060475512,26.898646104304333,53.44545174040047,91.67499812365887,131.27712474546618,157.14497991823168,177.11967277509544,196.3513956484063,193.15534795902929,146.8717103688378,64.03822461368935,-27.08449183273347,-100.53951376173731,-149.4644338649585,-167.81880885159728,-148.8573941151892,-119.71893458478777,-110.2270709157814,-97.42165102202162,-61.99472197712434,-36.478813485173795,-31.044985357176756,-16.861095258059336,-2.275757103541274,-7.648566625155226,-6.6143479128122635,12.566140892499952,17.23762203939968,4.630115222946571,1.6188393674477553,6.216975674441262,7.014238435227901,8.713122407538826,11.133460809631504,9.464179597691453,2.170147005566065,-7.336342990396162,-3.5254761884887422,11.20736390779039,8.110582195323026,-7.752946560358346,-10.307158342854148,-15.977677772723613,-33.38513053353312,-29.120651097080597,-7.631576026084103,-3.065190223980075,-6.391059933004609,-7.081893755369119,-19.880315350911694,-30.426892989590538,-21.705576846230358,-14.17029547353819,-13.583091624732724,-6.596390101709233,-2.653280918921652,-4.852365232202583,-1.008716834596985,0.21979976208250562,-5.804872953874288,-6.498370466491423,-8.89601966283701,-16.503571820873667,-10.924641017721637,-1.5831403582728996,-12.297230589692859,-32.79509118558259,-44.92692162050125,-38.30292049272049,-5.690941362865024,26.432620651432586,26.828627846619035,10.669144074108598,-5.286197086247245,-29.08621564485978,-51.12812350308244,-55.68997732380701,-56.460187089973644,-67.72764477456364,-71.35520768201566,-64.8142049838261,-97.02020400108313,-147.61481568014455,-63.64067398213815,253.45895187205636,708.0034127485817,983.9271038409347,644.0337100515862,-258.8077451070785,-907.4059605162983,-807.2165029422147,-449.2066881513563,-259.7284352506996,-72.43239136058806,116.16425609173719,123.6900266871571,76.27228580023511,100.19513251232706,94.43483492043045,53.02932539191027,46.4726675898821,39.06879525625199,14.356315924441839,8.506816679898321,6.422626740865325,-13.667947565096068,-34.55245287560906,-42.95399634332176,-40.65307130506883,-34.489810518357686,-28.563854823300076,-16.757523043479452,0.7731029752771654,18.210622021418445,42.50690512677623,75.75489475788964,107.22302016705974,137.14958252936583,166.50326477517024,182.06072718443835,177.6611146200853,151.53496726023448,95.66147359793626,20.54352240121941,-52.41942872125987,-116.78883025612609,-155.89798705577556,-148.93492954104156,-117.9969039644272,-96.43479627497275,-83.91986469011994,-77.06030242690024,-74.75103180521809,-58.99493784174932,-29.466734979071994,-9.622194959388452,-4.994602947506152,-6.87593246462756,-9.307119374488522,-4.4002692782314625,4.525671026987997,6.4351926609052725,5.038151891863951,3.876901767705615,-1.7524430060770442,-5.074553966572793,-0.5616192699057319,2.8365249426793344,2.191177798044997,0.11683573934743308,-5.963338963244706,-11.575908255576172,-9.78660723834708,-5.756106278740617,-5.095366860386882,-5.845748122510955,-6.439470773504437,-6.708779857319556,-6.122441950640793,-2.7520189540332556,4.026943245575309,4.906735544756904,-7.382439233336484,-19.444328207207317,-16.685302201032144,-6.241560423727673,-1.2101148982152061,-2.7437729685116956,-3.4872714031653427,1.1399676954044082,2.942738793299025,-7.214041345576836,-18.925187141408998,-18.259999536830193,-12.115005257495987,-12.154714842979203,-14.093256976097932,-9.781691989739448,-3.2382478559203527,-2.181044179695693,-3.301436472363834,-0.8155894344220673,0.852926141741623,-1.255592880085457,-3.8176406950735764,-7.434588948111585,-9.038106497161131,-3.398780557713968,1.8780666472053191,0.7809622630701138,-5.4446516688521704,-15.214811888899165,-5.391179740222255,34.03808838568216,49.92857276708702,16.338266290755072,-11.9822902354102,-17.079022340996488,-34.55630962538264,-55.22391830459478,-58.166424108433475,-66.61086108354809,-90.27424912175861,-97.37445536521669,-83.66942567213061,-104.36051681660464,-151.27538750149156,-85.11067028889664,189.51516067027694,616.3419429134477,955.4254742450955,737.2409459639493,-148.82089034808908,-899.4773274363781,-841.6540638219826,-433.37600863766664,-228.50850370894142,-69.93095866021275,109.26832159349956,111.55578150636406,51.68964867476974,81.28317535481982,89.86852317116546,53.67379666419319,52.74633911521882,53.43315882373906,22.906927542212532,-4.342957361172948,-17.62405989900952,-23.438480860900192,-23.775415240681,-23.37440561896053,-22.800916509268742,-25.57091174779446,-26.757101406182827,-13.965132192441827,-0.845544564692787,1.944520604712551,17.051979474201953,48.8654151657186,76.16632766881102,100.71399074604467,131.96026890251846,160.92365344891167,176.11366610841432,162.06232851824285,107.98569406639766,35.17711905827235,-29.915245643182466,-84.343824644931,-122.73162348226595,-136.33270969357824,-133.10548482518448,-119.10898527241179,-93.7747616597659,-66.68997041592803,-44.36687984741363,-26.807833284785747,-20.014395420549473,-17.962665967388432,-5.294103313901402,10.168563177385922,15.999613603889596,18.594490164293376,13.729112566538394,-5.729004480566523,-15.893662475886323,-3.6220961238764513,5.1073590251682255,1.56507872941949,0.07855820847106898,-7.981175340393378,-24.844694943129916,-25.001319504565828,-11.688794750003414,-11.09280498316841,-15.474844117054072,-11.098083155174528,-10.032444475366681,-12.587391021215979,-8.000424068418454,-4.174224861414924,-6.3586552746717935,-7.365664273705272,-7.886106623869704,-7.829761320893791,-3.906356280904685,-3.0040720816009046,-5.455746372415305,-3.218970681154051,-2.9995065002835233,-9.994075511824592,-13.134306099628496,-9.897584961629686,-6.740372640532794,-3.801052072430485,-3.1681282893579272,-4.825724154437296,-2.659534723292646,0.5403388413734209,3.4714722266088405,10.228250576910106,7.5783122972195915,-8.996649520427088,-15.008530352700689,-9.835857902327234,-13.999033458876085,-14.977965191314947,-4.332790945667254,-5.3302967412139814,-14.317747846998802,-10.096812028295082,-2.430765790656487,1.0035887786311513,7.251522656608626,7.829207076762077,0.3077433490019228,-4.95694323877537,-12.869926694812122,-21.34600657350418,-12.979001687315026,2.8377565297457696,0.8598472164504827,-15.413130254575718,-23.107814309246407,-13.798984550503544,-2.0837107803789614,-4.446720118573651,-18.10360989056757,-32.193369903428305,-34.35732836578905,-7.481998821518051,35.1576877344935,49.17859548365413,27.926864250388665,3.1876299036022653,-15.755094430241602,-35.579140410983854,-47.19131095603639,-39.166500115904306,-29.98586661652271,-56.11212647273783,-94.18436171297546,-94.16334862912626,-104.14688318028298,-141.84257069567863,-50.31142034014448,271.8282168620142,705.5988721795666,952.5600419354213,607.9097589010876,-278.9894123417933,-899.1359602099271,-773.0014781973475,-413.8215642135182,-237.13610285019152,-65.73108477449463,96.27024414583322,91.28318405136449,59.73554431652876,89.760825990564,77.61674664003405,52.27852536164947,65.21846533496608,50.56096766461712,12.70409706150425,1.8378963925665366,-4.717380327450952,-18.97967389314374,-26.04535765016643,-34.33426175061791,-39.28281157570664,-33.76594994007054,-34.284878363635954,-33.8178830145136,-12.890717466358467,14.098773110693667,36.04221647467228,65.37232448235234,97.93208182614565,121.65928756002526,145.23003130526513,174.00641933360654,192.30065861361402,181.99833618647295,134.98596111532794,57.60604537107962,-27.733336106645485,-96.13634918595886,-134.60213118372945,-146.95217387341248,-148.3816823232807,-142.45168842075435,-117.67115078747024,-81.85336698043847,-58.33572447130814,-43.422682737628776,-23.778992929915983,-10.63251781563972,-7.559416801045039,-0.5993405074637117,4.713212489112557,1.81130569115561,5.45704652822667,12.974528473574694,8.57977962383359,3.7102219374890435,9.681616234442428,13.8424773992378,11.765608757668499,7.216406144242068,-3.9766174467573627,-14.977548694981056,-14.204714468012396,-7.040415992292836,0.7085321182208393,6.866016908788998,0.0705874602578973,-19.884589762018166,-34.46376833388074,-33.614679334343755,-23.25506513104128,-13.57095461548926,-9.747844059721505,-8.71376075158587,-10.505241301723046,-16.52245646808926,-15.793361525157064,-3.7479698799402428,4.400975237692101,0.8050378192266372,-3.694451322837402,2.2944551349321607,15.196946244056107,15.230447521753213,-7.206710894971508,-32.578489828696725,-40.29651627851575,-32.91255528093879,-23.98212839733194,-19.62291822315798,-12.699910778950152,-1.3348895946209396,1.110600815707734,-5.416300755408777,-6.411996690358183,-3.179000734779631,-2.5049082665451046,-1.954473026943223,-2.97961699863907,-10.913916130275908,-29.316356206457453,-43.78264741960791,-22.07124820552965,18.257754106122043,20.034861877214425,-1.6621177633714144,-2.269047060539478,-8.953261309674335,-35.97471400453481,-43.63986480739317,-38.17103237636524,-52.49849365947348,-70.5937415185003,-66.40538876237426,-60.417164944068666,-95.18974006804531,-128.52029934148806,-16.11345289869638,315.53717366243995,748.6191393602612,944.1788566248268,503.26483264716,-402.4368320432084,-937.4471677785936,-754.1120849604688,-406.7532374048943,-229.26378127415563,-30.35953778285686,141.27880962806975,123.07439522727586,76.2687854507103,106.32798995768336,98.53972371283072,53.21933375961342,43.54796004621657,39.993302488073496,18.144465927097198,0.7583352499679343,-10.5270798782756,-20.724218915907564,-24.964560012016122,-22.13031190226365,-20.601275475237713,-33.00048831020395,-43.51797097650377,-23.99602156198106,5.813722125074083,19.85418504781658,41.777095975113326,78.94988560208694,101.28659920300227,114.16184767384415,141.404667151458,169.2614101449435,174.3620007223783,144.6138435587504,76.12769567433794,-4.484664046140503,-64.51331564400101,-106.42522576398251,-135.31175771689922,-138.56672812646923,-120.81557050633131,-101.61365804867818,-86.98748453903286,-72.78572985598484,-55.93500675275158,-38.464544888959,-25.440268630869156,-15.118612525774417,-5.3418469872933585,-1.9867034066311007,-2.182987794206973,5.166774190180295,13.813417646313464,10.048625158699407,-0.05483876863521431,-3.606445302388405,-1.1231874750646522,1.7385520326973634,1.9451995097990515,-0.5542040857807358,-1.686552887633173,-2.1393689241254137,-5.721998374935826,-5.398527334443509,1.4087043559779762,1.2062948323498208,-5.980050921551676,-5.723049362065021,-0.5753099444677652,1.4299565663234866,1.1664278776923513,-5.578486796006715,-14.015796632714641,-10.093694106046687,-5.6018214752499595,-13.135772717024143,-13.294067325366575,-2.8443931864632734,-4.013056195437809,-10.949462199189105,-7.7701756176722725,-4.684220444558951,-7.7557395760083345,-11.738868524459022,-18.229114097266617,-19.232860056408626,-7.165947562295038,1.810140391792098,0.7877080297469092,2.4410008663621756,3.9197510874229238,0.5711757399431221,0.9835745521780055,-3.1174154082737573,-16.851560704177366,-15.949139091013533,-3.113270375151174,-11.730942254387553,-28.71112903784544,-20.00049855579021,-2.387906268285949,1.339895259587884,1.1469155883855144,-6.00142906868955,-24.884153209211597,-28.60447430325831,-13.253337507809565,-11.962980587242264,-22.96224021111324,-22.413316849308835,-26.08092922402956,-39.343668987263136,-20.493215925629098,26.166994011378815,38.22251608748793,14.967654445752322,6.316864151465821,5.103782061838192,-17.57881718625147,-46.43789814876759,-60.61364665100011,-60.23691495046466,-60.7141377697871,-70.40374809344438,-70.12138849868074,-80.71040022202808,-127.94887983835221,-93.23637006819801,151.56326538604557,551.9550485087253,903.2295851879808,804.6644910107091,24.547681769052645,-807.7197810749354,-889.9160764164334,-488.72681094781785,-245.36617843444503,-98.84537262434631,86.6921564770025,116.4897357586639,51.839394793259835,72.89204736592886,88.24399994696854,51.539856631631004,45.11253440940392,41.43295849379696,16.260574076591347,12.035253003398768,5.051725271266008,-25.634389846678495,-35.90538677184857,-19.328290122386246,-9.484045654785326,-11.122110838642932,-13.720084807841122,-12.158505593288123,-0.7108783209065024,17.038480962146902,34.413330259999036,57.12804420797704,77.01899304899275,77.11969374965126,89.44008538877901,142.62727294676932,175.78711622010925,148.24337190631394,117.19032785444436,88.80595787440731,7.917604679916044,-82.11546421399659,-112.10710120888768,-119.07627985886947,-138.31386635273856,-141.95965221710156,-125.03453311656939,-98.98702950156559,-63.946574674205756,-38.00690122632477,-27.354594581566474,-15.842721815466717,-9.109591448441385,-8.762846504946609,1.7352056559935178,11.13847801071517,5.726243267848645,0.6660357679079709,0.22360551653253324,0.23541271622249127,6.387099871110401,10.51537036963144,8.484845069206301,9.775599099904829,2.24662066852904,-14.863357290631843,-13.823477147830406,-7.10372771574303,-19.154662238461786,-19.94799385944051,-0.31160155938995615,-1.9935787835182417,-20.8685724967077,-17.205211121215495,-0.30913165639256235,-1.0749054929447368,-15.913171268851741,-24.682580956048287,-24.051336184086367,-24.25848855211003,-21.54064140313649,-4.619922842659392,8.132392859267467,-5.6360036328786585,-22.805847345041883,-15.94557172248249,-2.9609646227426136,-3.239084785723321,-3.6565350924660986,-0.511292929738584,-6.874184968962016,-7.193373724877659,15.941712052858293,28.675021543597442,6.7694456435202035,-14.881022485420221,-19.745529161604587,-25.503462347442785,-19.151860542317962,3.3061682814880857,8.487163163604224,0.8510593820955776,2.5839303773010673,-6.761240825391827,-25.56049076566189,-16.808404647630688,8.565351023088496,12.837651463028868,-4.617957411345621,-25.654654671611127,-34.44911041429947,-24.81168167637218,-12.123263602078865,-9.188609165825415,-13.402582332802492,-22.572706214312987,-24.108772211728958,-6.046148170492579,5.90343993819037,-13.185851011476892,-31.497453004116814,-11.223162904089426,22.224839153853477,27.348456530288466,19.332313399245834,24.465518436762817,19.446460775632943,-14.263540386944696,-53.582845939111394,-78.34840698704986,-77.26244389564579,-54.416013176648896,-44.81708297967965,-51.87306774630845,-60.96478801339091,-100.40553446839658,-121.81929434873685,28.6651243518545,401.3367607958913,826.3094770333876,904.2223396193389,305.44578832955665,-579.545284991258,-920.8730557203866,-640.0216724708289,-325.5081822633572,-150.93968312488312,27.14419635229695,113.3280696926942,76.24199963727955,67.62026171928079,83.26706559525992,63.45379024189719,54.72199191969001,55.22598450292455,34.67856603312491,24.384164269461976,22.5662465744632,0.7425740081644872,-16.435621461541157,-14.215489857709565,-22.786012918980546,-43.587250819093015,-46.195724592334464,-29.74512125592736,-13.81559457438043,1.565952734424446,22.79914879989587,46.724939788874735,74.4952650245961,108.61513995945768,139.16228724907253,152.01126557704598,148.3413888388941,144.05822786485092,138.3368601429315,109.5489069711583,52.46621966666763,-26.564370535945102,-118.37991995775138,-175.40087004037304,-160.64174526350763,-123.51356890412995,-112.99611440505629,-100.08442776540869,-67.28883972176921,-44.8976548209899,-38.84415316749254,-30.162896147127828,-15.511326383550518,-2.419954224413644,1.3701445462285626,-2.067208681080075,-1.9304961056213337,-1.2295698148286718,-5.646897229559972,-6.758510007253566,-5.426148489853102,-6.424000365182426,1.3621028247581641,15.569615891682538,18.59594999412493,11.446193632798192,-3.2748459829518026,-27.875408723924906,-37.52703774951701,-15.353075113864628,3.467479530151259,-8.749720862463892,-23.690920225166153,-15.93498705753484,-6.833563337851505,-14.758378752417146,-18.690859190474534,-3.677147689290411,7.66831998412508,-3.4077280444293763,-21.761462130021577,-24.58191912672455,-11.667434036968965,-1.5229947654629559,1.8029896826222913,12.8838094845105,22.168792962983815,9.501164874818379,-3.6001148568687356,0.9480564912750733,-5.99214565589287,-29.032204186544302,-32.06408182485401,-14.970991194941327,-4.262711650728724,-1.6910909564183587,-2.916134667813031,-9.295403951857324,-14.028350539432433,-13.923443060398244,-11.612923729911369,-7.50183350771499,-7.20768943126323,-12.485239900703313,-12.116468558649501,-2.4256096029559657,7.5007386809781815,11.470735759271921,5.86048524703728,-8.499332466315526,-19.03012514261549,-15.656580933766072,-0.7659321410495821,17.57689115165114,26.209310371819164,20.78856388199338,14.137892592438858,1.2385564863720901,-36.746787444729414,-76.83289727656322,-80.48624779968551,-63.97135516864556,-65.9339138356404,-76.9859206423368,-72.73392835306187,-83.41338615150241,-124.34587975306171,-84.58221962780786,167.46663471668293,591.7715055894406,926.3647257468534,777.2235699827665,37.19773757233261,-725.0699647610983,-881.7664843679045,-598.2311209374253,-350.64761326990424,-159.1065055632194,48.89086185271481,125.44431785011987,87.61754599900304,91.62530498081526,110.78170755311501,82.09257329220185,54.31238214733455,45.02266673132637,29.773764589397786,17.77444440915965,9.819841559106472,-8.991428254781571,-24.686632367029503,-21.260167001501085,-15.04607111748312,-19.159463034425375,-17.546393220219343,-5.459841912058309,-4.42480927086973,-8.54345650801407,15.265208505819224,56.95018708237562,79.50408365895854,95.53069777264326,132.73515030172717,165.263182850551,164.95577382438893,148.79091780235868,121.60389252015972,62.57234575730875,-17.19306652036395,-81.56480738530766,-115.25687410635226,-126.70679687199407,-130.15580394609304,-122.98944617789266,-92.61513672949425,-60.39020504022307,-55.712882486770155,-55.08931280365924,-30.845994515550125,-5.985677494500479,-0.6612427048544909,-2.9597012528270916,-1.9435976377750528,4.686199767853907,9.612195991687475,5.7498543753700275,7.452599743660498,13.150756431378205,-2.558017604522231,-18.149855667275517,0.6437680374487442,16.96510206047578,-0.21341967899983416,-14.65238232639334,-13.955482231399138,-20.97010045423091,-24.19752485238208,-13.191876026508993,-6.028781070379068,-1.6833350117743358,4.0792858908879275,-7.046657624608166,-31.71012904294577,-42.252170067294465,-30.82963401846996,-13.913710822382253,-12.583966487697147,-24.998588718035858,